##TITLE=1D-13C-1-5-5-328-110-"no"-"yes"
##JCAMP-DX=5.01 $$ Magritek Spinsolve SPA1903 2.0.4.4423
##DATA TYPE=NMR FID
##DATA CLASS=NTUPLES
##ORIGIN=SPA1903 at Magritek
##OWNER=Copyright (C) 2025 by Magritek
##LONGDATE=2025/02/12 14:29:15.011
##.OBSERVE FREQUENCY=15.4861775226891
##.OBSERVE NUCLEUS=^13C
##.DELAY=( 20,  5000)
##.ACQUISITION MODE=SIMULTANEOUS
##.FIELD= 1.5
##.AVERAGES= 1
##.DIGITISER RES=16
##.SHIFT REFERENCE=(INTERNAL, Water, 4096, 0)
##$REFERENCE_POINT= 796.520    $$ Referencing label
$$      Distance of the zero axis position (in Hz) from the last data
$$      point (right edge); positive values -> right edge is below 0 Hz
##SPECTROMETER/DATA SYSTEM=Magritek
##SAMPLE DESCRIPTION=solvent=Water
$$ Bruker specific parameters
$$ --------------------------
##$AUNMP=   <proc_1d_nosref>
##$INSTRUM= <Magritek>
##$SI=      8192
##$TD=      8192
##$TDeff=   8192
##$SW=      322.868600
##$BF1=     15.4861775226891
##$SF=      15.4844740431616
##$LB=      0
##$PHC0=    217.8
##$PHC1=    0.0
##$REVERSE= yes
$$ End of Bruker specific parameters
$$ ---------------------------------
##NTUPLES=NMR FID
##VAR_NAME=        TIME,            FID/REAL,            FID/IMAG, PAGE NUMBER
##SYMBOL=             X,                   R,                   I,           N
##VAR_TYPE= INDEPENDENT,           DEPENDENT,           DEPENDENT,        PAGE
##VAR_FORM=        AFFN,                AFFN,                AFFN,        AFFN
##VAR_DIM=         8192,                8192,                8192,           2
##UNITS=        SECONDS,     ARBITRARY UNITS,     ARBITRARY UNITS,            
##FIRST=              0,                   0,                   0,           1
##LAST=    1.638199e+00,    0.29260949973902,  -0.116497794145584,           2
##MIN=                0,   -3202.43422395573,   -3019.82392498456,           1
##MAX=     1.638199e+00,    3056.01258394289,    3303.53350076709,           2
##FACTOR=             1,                   1,                   1,           1
##PAGE=N=1
##DATA TABLE=(X++(R..R)), XYDATA
0.000000     0.000000  1325.981596 -2430.268782 -3085.097203   122.268469  3056.012584
0.001200  2233.184345 -1315.038219 -3202.434224 -1130.818184  2270.410951  2813.629851
0.002400   -56.371544 -2763.766712 -2092.597336  1055.814475  2890.379798  1236.985407
0.003600 -1893.732740 -2714.384601  -250.113869  2488.458050  2221.231583  -711.519455
0.004800 -2800.480770 -1517.117694  1641.071624  2838.368800   555.104715 -2445.543851
0.006000 -2458.428710   561.818131  2911.009681  1688.615564 -1629.262932 -2961.774183
0.007200  -637.006342  2494.001033  2537.962420  -567.884907 -2963.141169 -1673.715705
0.008400  1671.101821  2913.013106   563.193817 -2437.183382 -2413.391349   559.841282
0.009600  2804.587229  1586.991546 -1542.529708 -2730.220729  -581.680315  2217.447739
0.010800  2287.933473  -388.417091 -2562.010262 -1630.300635  1264.894500  2611.989770
0.012000   782.508499 -1983.221589 -2330.884379   130.049356  2435.374691  1811.344657
0.013200 -1032.538279 -2666.427460 -1035.559662  1910.496333  2514.776671     8.765513
0.014400 -2510.221267 -1951.246878  1013.874557  2757.909775  1093.610778 -1959.390572
0.015600 -2580.476674    18.724732  2566.583000  1901.882190 -1084.252387 -2689.837932
0.016800  -988.131627  1904.162648  2426.335515   -41.992149 -2407.400495 -1772.831578
0.018000   982.297800  2471.198529   968.969698 -1654.233164 -2262.583583  -147.144520
0.019200  2139.358802  1822.405685  -696.367190 -2351.087506 -1167.070938  1418.333108
0.020400  2304.857726   408.042771 -2018.136736 -2017.084613   479.006475  2420.264217
0.021600  1392.268439 -1367.631013 -2463.194005  -522.713735  2082.976261  2130.521673
0.022800  -468.539956 -2499.785330 -1430.635084  1411.305503  2493.486994   484.741135
0.024000 -2099.343734 -2069.317797   497.462353  2419.281541  1362.514335 -1342.571304
0.025200 -2368.781849  -490.722557  1952.090400  1978.709714  -394.100965 -2239.946246
0.026400 -1361.165243  1134.136183  2243.871084   639.929826 -1742.638106 -2006.884151
0.027600   176.312891  2136.681938  1496.639695  -953.586540 -2254.663615  -827.947767
0.028800  1634.007315  2129.384848    -5.675333 -2161.968023 -1652.484272   904.219470
0.030000  2346.159414   902.933688 -1656.003685 -2190.809424   -14.256602  2201.137809
0.031200  1674.226750  -938.512560 -2349.301061  -837.622834  1660.570640  2086.962166
0.032400   -30.157686 -2080.478504 -1559.526637   865.358194  2181.185932   806.824924
0.033600 -1491.681238 -1923.702567   -57.930306  1830.847082  1517.284085  -612.788475
0.034800 -1999.985918  -968.517856  1230.842715  1934.589280   310.005372 -1686.424186
0.036000 -1667.330979   377.028970  2015.919167  1209.324990 -1122.105770 -2106.782017
0.037200  -481.547588  1760.854378  1842.393723  -366.119524 -2147.879058 -1269.530373
0.038400  1205.298662  2191.008534   432.367940 -1858.683964 -1813.681818   480.771311
0.039600  2138.976308  1130.298080 -1242.448301 -2038.888647  -327.286688  1737.445114
0.040800  1634.368011  -453.089614 -1930.023778 -1033.742946  1074.794322  1830.543793
0.042000   386.217950 -1482.852625 -1551.004918   230.271578  1728.900661  1142.663219
0.043200  -825.990564 -1795.260441  -593.402199  1321.420315  1652.433772   -14.481673
0.044400 -1702.173785 -1338.639734   696.522450  1908.194674   757.945253 -1347.127593
0.045600 -1793.243865   -26.232321  1787.520756  1411.956451  -727.413604 -1985.080084
0.046800  -754.930130  1422.754622  1801.444217   -53.371067 -1802.462401 -1312.693726
0.048000   769.595569  1882.114172   671.185220 -1352.594551 -1675.303840    62.228189
0.049200  1662.817762  1204.562722  -666.264575 -1689.659525  -686.434895  1125.921107
0.050400  1576.116472   120.374984 -1468.208261 -1272.078314   438.741961  1618.595836
0.051600   867.783320  -943.524111 -1654.633309  -352.802371  1422.747815  1475.238236
0.052800  -307.400676 -1740.955304 -1037.326957   963.411318  1803.438320   407.946892
0.054000 -1525.800087 -1570.473742   363.751690  1846.199749  1011.382464 -1074.951770
0.055200 -1797.936545  -287.424616  1549.230958  1446.663895  -427.608775 -1736.571311
0.056400  -892.998651  1013.212516  1634.231753   263.687494 -1374.560928 -1312.738721
0.057600   308.446898  1519.680890   901.516284  -775.818714 -1515.664180  -436.968315
0.058800  1163.643304  1362.775138   -79.643722 -1430.575677 -1069.912659   593.120145
0.060000  1572.224026   646.383457 -1109.661039 -1525.392920   -42.658871  1510.029350
0.061200  1205.282623  -585.120951 -1671.337518  -703.641759  1157.062705  1600.749585
0.062400    37.068028 -1579.625842 -1212.868525   651.042471  1673.396780   631.054457
0.063600 -1162.624738 -1515.725553    -7.951805  1500.653513  1136.079992  -612.592919
0.064800 -1561.399136  -595.781059  1048.632136  1401.585516    76.379471 -1330.242094
0.066000 -1120.034468   448.807247  1455.851457   691.094773  -894.270194 -1392.156870
0.067200  -226.622058  1221.003401  1215.737394  -288.067505 -1469.591180  -842.634880
0.068400   838.742205  1496.780383   311.927949 -1262.556316 -1292.789780   281.289707
0.069600  1527.516487   881.804139  -876.711027 -1538.786922  -277.109923  1308.271982
0.070800  1250.784063  -346.323305 -1488.618212  -781.613200   866.289889  1416.858706
0.072000   227.588871 -1201.287449 -1132.143162   294.632730  1320.318342   739.617549
0.073200  -702.622040 -1276.421930  -327.069393  1005.585495  1132.035712  -103.371246
0.074400 -1212.664061  -862.275579   533.121813  1298.263912   503.727129  -921.433111
0.075600 -1257.973117   -46.651973  1265.510433  1029.390384  -512.387279 -1432.557604
0.076800  -566.046257  1004.846551  1336.035913    12.555961 -1341.715895 -1027.971934
0.078000   584.329254  1459.148258   498.003671 -1054.779962 -1265.206471    73.262535
0.079200  1289.030274   916.017452  -568.237753 -1334.103545  -447.817265   959.807094
0.080400  1150.246011   -43.173135 -1134.104724  -856.561388   426.125699  1195.241100
0.081600   528.306785  -781.708697 -1140.795115  -117.390766  1035.227800   942.489906
0.082800  -275.379930 -1180.045989  -672.600764   677.657117  1231.960721   262.215766
0.084000 -1052.881030 -1076.294456   230.453731  1268.379448   753.769281  -710.013895
0.085200 -1312.901719  -273.471902  1117.471313  1106.880442  -287.609925 -1303.234914
0.086400  -695.438683   759.571553  1257.126704   201.845993 -1080.369311 -1008.404286
0.087600   291.435151  1196.235973   622.767926  -678.447653 -1117.403092  -216.697321
0.088800   908.565012   929.791025  -144.062676 -1033.848250  -693.076192   472.477971
0.090000  1077.968824   395.718106  -768.544188 -1021.962132   -45.762172  1013.914448
0.091200   868.112401  -360.846974 -1193.266640  -555.479352   805.656373  1181.297780
0.092400    82.009860 -1134.113399  -950.053797   428.524634  1290.671333   534.644614
0.093600  -908.280586 -1201.571643    20.445616  1185.576223   847.458728  -512.172412
0.094800 -1206.722297  -420.354182   862.923739  1058.665199   -49.876246 -1057.690221
0.096000  -738.050251   441.522790  1037.358333   401.562176  -682.283518  -946.180059
0.097200   -81.960075   879.818441   778.839651  -254.065120  -967.999648  -529.095473
0.098400   538.265638   981.631419   250.651974  -821.092703  -913.662245   137.055050
0.099600  1039.102044   662.962392  -538.537014 -1088.709020  -300.372812   881.399664
0.100800   988.751057  -149.668892 -1118.007243  -678.944696   610.180627  1124.237443
0.102000   235.079097  -929.603842  -930.781773   215.438688  1077.821675   594.538837
0.103200  -611.543656 -1033.325422  -180.904946   854.469485   823.060196  -190.747325
0.104400  -943.288485  -549.461583   486.604234   920.745123   250.792801  -711.830431
0.105600  -814.654693    56.494131   853.980836   629.615165  -351.683004  -926.861765
0.106800  -390.529190   649.185315   921.371777    49.865083  -909.655892  -746.889668
0.108000   353.021489  1022.950223   428.302358  -708.146395  -979.192808   -18.449710
