##TITLE=1D-13C-1-2-5-328-110-"no"-"yes"
##JCAMP-DX=5.01 $$ Magritek Spinsolve SPA1903 2.0.4.4423
##DATA TYPE=NMR FID
##DATA CLASS=NTUPLES
##ORIGIN=SPA1903 at Magritek
##OWNER=Copyright (C) 2025 by Magritek
##LONGDATE=2025/03/17 11:59:05.534
##.OBSERVE FREQUENCY=15.4860999900848
##.OBSERVE NUCLEUS=^13C
##.DELAY=( 20,  2000)
##.ACQUISITION MODE=SIMULTANEOUS
##.FIELD= 1.5
##.AVERAGES= 1
##.DIGITISER RES=16
##.SHIFT REFERENCE=(INTERNAL, Water, 4096, 0)
##$REFERENCE_POINT= 796.529    $$ Referencing label
$$      Distance of the zero axis position (in Hz) from the last data
$$      point (right edge); positive values -> right edge is below 0 Hz
##SPECTROMETER/DATA SYSTEM=Magritek
##SAMPLE DESCRIPTION=solvent=Water
$$ Bruker specific parameters
$$ --------------------------
##$AUNMP=   <proc_1d_nosref>
##$INSTRUM= <Magritek>
##$SI=      8192
##$TD=      8192
##$TDeff=   8192
##$SW=      322.870200
##$BF1=     15.4860999900848
##$SF=      15.4843965190859
##$LB=      0
##$PHC0=    216.8
##$PHC1=    0.0
##$REVERSE= yes
$$ End of Bruker specific parameters
$$ ---------------------------------
##NTUPLES=NMR FID
##VAR_NAME=        TIME,            FID/REAL,            FID/IMAG, PAGE NUMBER
##SYMBOL=             X,                   R,                   I,           N
##VAR_TYPE= INDEPENDENT,           DEPENDENT,           DEPENDENT,        PAGE
##VAR_FORM=        AFFN,                AFFN,                AFFN,        AFFN
##VAR_DIM=         8192,                8192,                8192,           2
##UNITS=        SECONDS,     ARBITRARY UNITS,     ARBITRARY UNITS,            
##FIRST=              0,                   0,                   0,           1
##LAST=    1.638199e+00,  -0.153024948356868,   0.456055194459783,           2
##MIN=                0,    -4262.1432358032,   -4142.72027935877,           1
##MAX=     1.638199e+00,    4116.97329368271,    4433.25954145378,           2
##FACTOR=             1,                   1,                   1,           1
##PAGE=N=1
##DATA TABLE=(X++(R..R)), XYDATA
0.000000     0.000000  1790.165254 -3229.612274 -4142.665032   173.541487  4116.973294
0.001200  2960.135498 -1805.844501 -4262.143236 -1452.819666  3048.133724  3719.489934
0.002400  -107.442810 -3693.316256 -2771.936400  1447.844535  3866.209019  1620.098223
0.003600 -2543.738193 -3627.909775  -339.015797  3362.679726  3018.514825  -975.973548
0.004800 -3842.309559 -2063.277552  2289.480035  3910.166658   726.255585 -3431.542437
0.006000 -3400.403476   861.800148  4114.503024  2282.785945 -2420.606638 -4151.261876
0.007200  -707.662218  3640.371330  3457.795585 -1028.702380 -4209.892982 -2138.766555
0.008400  2562.296142  4038.384236   514.930944 -3579.020448 -3203.228158  1077.815818
0.009600  3952.184356  1952.463670 -2377.254470 -3720.114883  -534.588144  3212.387524
0.010800  3015.099333  -795.875498 -3590.746413 -2044.842173  1943.026310  3567.406663
0.012000   880.608067 -2876.037442 -3171.271268   375.054861  3498.838584  2405.684917
0.013200 -1651.411819 -3771.715334 -1269.769824  2874.928183  3529.630514  -202.934459
0.014400 -3738.126815 -2662.441578  1753.712982  4037.128700  1294.037471 -3096.708725
0.015600 -3623.417048   387.863955  3895.134081  2510.183105 -1954.574192 -3931.355103
0.016800 -1032.126096  3076.760103  3324.487208  -492.480152 -3605.760874 -2249.385732
0.018000  1782.236812  3547.370034  1022.890587 -2657.383048 -3095.078322   176.500212
0.019200  3201.780057  2370.239047 -1307.286711 -3414.960962 -1418.470309  2317.824145
0.020400  3289.916622   263.727466 -3153.897849 -2764.466791  1067.910584  3664.491362
0.021600  1763.650976 -2382.146655 -3625.791098  -358.671842  3403.712412  2953.539844
0.022800 -1196.151087 -3869.683231 -1712.129690  2584.639361  3648.158087   164.674072
0.024000 -3480.341279 -2770.373122  1332.045519  3729.603816  1498.610535 -2513.730982
0.025200 -3367.096058  -111.814503  3204.494307  2559.422848 -1150.764471 -3395.055440
0.026400 -1517.190672  2148.173534  3181.035128   383.420178 -2855.471554 -2650.361684
0.027600   752.193850  3256.990292  1829.663728 -1835.823545 -3307.526978  -763.618308
0.028800  2765.976360  2965.886428  -503.043090 -3425.930223 -2143.899145  1835.692554
0.030000  3590.266380   885.793724 -2958.947353 -3161.927385   591.209867  3633.961751
0.031200  2142.121329 -2034.467678 -3645.307302  -696.683338  3074.004397  2992.981703
0.032400  -769.231676 -3515.091568 -1891.699557  2010.704939  3353.736931   578.523540
0.033600 -2808.312907 -2707.407020   633.130005  3121.801850  1834.166442 -1622.638538
0.034800 -3086.046251  -840.755052  2400.443818  2759.172894  -198.844042 -2933.734357
0.036000 -2153.646323  1266.656685  3220.824765  1254.813068 -2313.625901 -3099.990796
0.037200   -37.928833  3134.382017  2450.474198 -1316.931852 -3502.851382 -1323.528853
0.038400  2542.251872  3251.037857  -114.998490 -3326.172510 -2360.820349  1532.151345
0.039600  3477.083633  1092.079859 -2596.629003 -3008.541911   275.501763  3139.503261
0.040800  2107.443398 -1456.410078 -3157.937093 -1003.346817  2302.485625  2760.597687
0.042000   -96.763781 -2782.426918 -2093.801401  1094.796396  2947.480041  1252.734493
0.043200 -1953.724190 -2813.328403  -265.912915  2631.085748  2356.683624  -803.762435
0.044400 -3044.686975 -1577.658528  1877.867766  3074.260631   458.155004 -2774.890096
0.045600 -2595.223662   825.929678  3255.785247  1644.728554 -2040.658041 -3206.708139
0.046800  -366.612381  2937.735899  2558.279463 -1002.049231 -3268.435924 -1467.704283
0.048000  2108.558550  3019.920496   207.928396 -2797.745116 -2316.488019   978.641160
0.049200  2992.341326  1335.368303 -1870.265553 -2748.687539  -325.297538  2441.864016
0.050400  2244.858769  -642.081013 -2736.572735 -1546.052269  1502.626128  2750.598215
0.051600   696.355096 -2241.560781 -2517.786439   301.167987  2830.471326  1915.016786
0.052800 -1412.480252 -3053.926960  -917.220735  2409.930539  2783.808335  -331.229105
0.054000 -3076.339905 -1989.376194  1613.105051  3200.225431   776.624415 -2592.156993
0.055200 -2702.165565   538.672576  3056.823881  1751.846963 -1675.073649 -2963.878194
0.056400  -609.486559  2413.837956  2435.324369  -477.304642 -2731.036725 -1651.673865
0.057600  1375.155176  2697.207743   777.405541 -2044.148265 -2409.011171   121.174842
0.058800  2522.255765  1891.955566 -1038.941943 -2745.324045 -1127.716010  1904.723238
0.060000  2666.003056   151.151158 -2623.223731 -2197.796606   986.933273  2989.329168
0.061200  1284.693141 -2053.575492 -2866.677340  -111.451103  2803.962801  2229.268975
0.062400 -1132.313394 -3080.960378 -1179.225594  2170.235481  2783.282086   -48.455673
0.063600 -2762.759016 -2029.385014  1171.847903  2879.595861  1035.230558 -2027.325183
0.064800 -2546.017012    26.349579  2486.601987  1907.168473  -932.826454 -2611.206708
0.066000 -1138.732107  1686.718614  2466.603149   279.096622 -2236.946216 -2067.885147
0.067200   603.361826  2583.781496  1457.981010 -1492.682833 -2676.680233  -576.689172
0.068400  2293.254674  2371.394053  -512.502029 -2816.854446 -1640.791098  1611.825816
0.069600  2892.063795   546.601904 -2503.577189 -2417.027146   699.146964  2929.982421
0.070800  1483.992733 -1771.905722 -2779.923390  -336.831750  2470.054211  2169.825846
0.072000  -766.119836 -2678.720988 -1291.186723  1611.579651  2485.667024   357.974964
0.073200 -2133.079504 -2023.262652   491.777687  2392.376443  1421.421690 -1244.802586
0.074400 -2415.462781  -688.102804  1899.887821  2221.191185  -167.016051 -2399.385811
0.075600 -1730.291217  1092.258088  2638.280303   928.694178 -1991.670319 -2478.002628
0.076800   131.925836  2605.676079  1845.027956 -1228.685558 -2790.835817  -869.115512
0.078000  2146.700094  2476.105522  -283.186825 -2657.322273 -1695.354987  1336.905262
0.079200  2659.116374   699.451734 -2076.816345 -2259.293721   315.458578  2444.647336
0.080400  1551.780910 -1183.088502 -2419.901444  -731.446473  1791.851092  2130.715230
0.081600   -81.640489 -2179.897565 -1645.205099   874.349208  2338.083372   990.191665
0.082800 -1565.359894 -2263.012536  -217.289388  2145.041460  1914.748534  -692.295667
0.084000 -2503.975908 -1241.894100  1597.990514  2501.553974   291.402443 -2322.178646
0.085200 -2075.345406   782.961513  2685.895888  1223.823520 -1773.133552 -2535.900427
0.086400  -135.438622  2404.731739  1925.913343  -924.648029 -2576.062070 -1033.111230
0.087600  1731.995244  2303.259980    61.213292 -2179.983893 -1726.495391   772.537543
0.088800  2279.177343  1033.293076 -1415.862033 -2138.811376  -313.289192  1876.806813
0.090000  1824.308541  -419.609526 -2183.478502 -1330.781910  1163.374105  2294.234568
0.091200   632.442531 -1860.393389 -2122.226570   258.291341  2385.595520  1564.413723
0.092400 -1241.011544 -2538.873955  -667.060325  2059.587057  2221.340430  -395.230070
0.093600 -2524.740308 -1490.778521  1398.439658  2504.633497   488.593087 -2087.503806
0.094800 -2039.824405   503.554189  2366.772495  1298.195129 -1311.404395 -2264.688220
0.096000  -456.278044  1850.820808  1868.462895  -342.130034 -2098.337209 -1323.937706
0.097200  1025.175203  2130.469784   672.916488 -1594.813464 -1950.773329    52.465230
0.098400  2012.308779  1548.211387  -815.261341 -2234.530276  -933.198125  1565.137245
0.099600  2173.303018    83.984990 -2151.590471 -1733.705053   857.467039  2421.023774
0.100800   973.764734 -1712.859191 -2273.604338    17.506109  2284.933148  1686.997530
0.102000 -1007.650018 -2413.433614  -809.728697  1769.662454  2114.044407  -146.516055
0.103200 -2165.064864 -1488.399545   975.413610  2179.077318   717.255099 -1553.379208
0.104400 -1901.251322    23.266313  1875.432193  1456.998105  -690.839342 -1994.781708
0.105600  -914.324747  1264.281857  1941.380145   275.512722 -1756.296039 -1685.705409
0.106800   455.209307  2098.775508  1193.420138 -1234.624445 -2184.995992  -409.817954
0.108000  1922.210986  1883.835020  -526.083004 -2303.413724 -1201.471896  1415.245039
