##TITLE=1D-13C-1-2-5-328-110-"no"-"yes"
##JCAMP-DX=5.01 $$ Magritek Spinsolve SPA1903 2.0.4.4423
##DATA TYPE=NMR FID
##DATA CLASS=NTUPLES
##ORIGIN=SPA1903 at Magritek
##OWNER=Copyright (C) 2025 by Magritek
##LONGDATE=2025/03/17 11:57:59.394
##.OBSERVE FREQUENCY=15.4860999900848
##.OBSERVE NUCLEUS=^13C
##.DELAY=( 20,  2000)
##.ACQUISITION MODE=SIMULTANEOUS
##.FIELD= 1.5
##.AVERAGES= 1
##.DIGITISER RES=16
##.SHIFT REFERENCE=(INTERNAL, Water, 4096, 0)
##$REFERENCE_POINT= 796.529    $$ Referencing label
$$      Distance of the zero axis position (in Hz) from the last data
$$      point (right edge); positive values -> right edge is below 0 Hz
##SPECTROMETER/DATA SYSTEM=Magritek
##SAMPLE DESCRIPTION=solvent=Water
$$ Bruker specific parameters
$$ --------------------------
##$AUNMP=   <proc_1d_nosref>
##$INSTRUM= <Magritek>
##$SI=      8192
##$TD=      8192
##$TDeff=   8192
##$SW=      322.870200
##$BF1=     15.4860999900848
##$SF=      15.4843965190859
##$LB=      0
##$PHC0=    217.2
##$PHC1=    0.0
##$REVERSE= yes
$$ End of Bruker specific parameters
$$ ---------------------------------
##NTUPLES=NMR FID
##VAR_NAME=        TIME,            FID/REAL,            FID/IMAG, PAGE NUMBER
##SYMBOL=             X,                   R,                   I,           N
##VAR_TYPE= INDEPENDENT,           DEPENDENT,           DEPENDENT,        PAGE
##VAR_FORM=        AFFN,                AFFN,                AFFN,        AFFN
##VAR_DIM=         8192,                8192,                8192,           2
##UNITS=        SECONDS,     ARBITRARY UNITS,     ARBITRARY UNITS,            
##FIRST=              0,                   0,                   0,           1
##LAST=    1.638199e+00,   0.482632002430175,  -0.673187507972853,           2
##MIN=                0,   -7438.90512211826,   -7104.32615345636,           1
##MAX=     1.638199e+00,     7186.0688255152,    7727.54552285397,           2
##FACTOR=             1,                   1,                   1,           1
##PAGE=N=1
##DATA TABLE=(X++(R..R)), XYDATA
0.000000     0.000000  3091.658158 -5666.235136 -7203.610348   335.394641  7186.068826
0.001200  5141.780605 -3179.113656 -7438.905122 -2510.516135  5340.622314  6483.552795
0.002400  -230.910945 -6468.051500 -4798.496104  2562.279125  6735.290563  2786.791690
0.003600 -4486.968191 -6304.650638  -517.314235  5888.854245  5207.189445 -1778.877050
0.004800 -6687.059479 -3505.204545  4048.150698  6764.471463  1156.343732 -5984.539980
0.006000 -5808.997501  1586.903077  7117.479612  3850.800540 -4246.911917 -7131.789464
0.007200 -1133.281517  6306.349296  5892.905078 -1855.741762 -7265.267231 -3612.161912
0.008400  4468.943532  6927.790218   805.595105 -6202.315048 -5464.271667  1940.216613
0.009600  6824.843359  3285.396807 -4167.554812 -6382.055043  -817.979447  5592.669164
0.010800  5123.289032 -1478.137061 -6185.733618 -3410.248713  3441.693406  6103.935175
0.012000  1390.460882 -4999.290006 -5344.748744   762.215829  6000.181777  4003.217848
0.013200 -2933.552158 -6412.376637 -2037.758169  4971.873496  5935.177856  -477.170877
0.014400 -6384.401921 -4418.582924  3082.053424  6834.991835  2079.388486 -5340.802623
0.015600 -6099.550287   791.734116  6636.665375  4157.313242 -3428.322219 -6648.069675
0.016800 -1633.137659  5293.380058  5590.620756  -976.766105 -6176.611875 -3707.511107
0.018000  3161.004079  6003.806332  1587.008421 -4605.359012 -5175.650928   454.738991
0.019200  5479.871497  3884.012326 -2369.714720 -5757.102577 -2217.766144  4021.829083
0.020400  5470.292190   277.973510 -5377.576748 -4537.113505  1943.076503  6156.455901
0.021600  2788.299844 -4118.622611 -6012.074114  -434.451846  5773.553306  4844.455040
0.022800 -2168.346480 -6511.821822 -2720.990288  4457.266054  6050.178111   111.492134
0.024000 -5898.125558 -4535.256504  2398.346400  6259.440261  2364.953370 -4336.580450
0.025200 -5602.479215   -14.228418  5462.400672  4182.418870 -2118.017804 -5713.487817
0.026400 -2366.267397  3750.624664  5267.240029   449.049542 -4874.507372 -4302.845048
0.027600  1468.407211  5461.224295  2857.730761 -3221.037137 -5440.672409 -1060.389301
0.028800  4694.356540  4802.311448 -1034.438827 -5721.581620 -3379.287879  3214.886333
0.030000  5898.798945  1285.354059 -4990.287077 -5132.672100  1154.266124  6065.902930
0.031200  3392.935014 -3533.631404 -6016.627141  -977.231413  5202.433701  4852.292337
0.032400 -1467.200660 -5873.064601 -2972.466818  3521.172794  5536.975832   742.677349
0.033600 -4785.579111 -4352.901770  1275.932522  5210.309828  2836.542508 -2879.122074
0.034800 -5068.583700 -1154.549782  4103.534014  4401.369611  -575.950752 -4870.926733
0.036000 -3341.841485  2267.919735  5239.499120  1838.928848 -3934.952221 -4964.618874
0.037200   167.112137  5188.581799  3832.269833 -2334.681751 -5695.537692 -1969.082877
0.038400  4289.834220  5215.576817  -403.400777 -5516.825189 -3706.959939  2704.034482
0.039600  5676.241587  1565.917779 -4409.376715 -4830.950791   685.249879  5217.210677
0.040800  3263.855273 -2606.324914 -5151.881852 -1398.321103  3935.359334  4386.841598
0.042000  -423.820626 -4612.437850 -3209.440788  2020.548024  4779.252210  1776.838026
0.043200 -3357.932790 -4445.544407  -148.036614  4352.822356  3607.095124 -1541.922936
0.044400 -4904.031810 -2302.372216  3215.720331  4870.612206   488.549176 -4571.712607
0.045600 -4002.974730  1555.900643  5243.538357  2441.526438 -3449.576653 -5087.764259
0.046800  -352.078515  4839.769926  3959.826322 -1850.505601 -5288.183260 -2130.875431
0.048000  3596.671800  4798.689030    77.352713 -4656.708830 -3566.873447  1857.771567
0.049200  4851.395913  1885.254105 -3243.035004 -4328.018315  -219.340712  4060.680843
0.050400  3419.025811 -1311.639290 -4410.414611 -2189.942263  2632.588531  4296.757816
0.051600   811.306590 -3705.115400 -3822.769886   736.231829  4525.879554  2807.221927
0.052800 -2454.979514 -4783.722500 -1201.043117  3966.526011  4284.058165  -770.900149
0.054000 -4957.826697 -2961.165537  2786.468285  5050.229283   977.145808 -4291.296994
0.055200 -4167.130554  1134.678598  4950.148419  2574.448839 -2925.918216 -4692.218282
0.056400  -676.744650  4037.324026  3712.969172 -1079.892940 -4422.628635 -2361.458931
0.057600  2460.254808  4230.125158   919.417274 -3432.485902 -3645.027829   499.309970
0.058800  4053.830797  2732.161319 -1903.787413 -4280.123332 -1483.332818  3179.436687
0.060000  4049.432241   -45.989301 -4195.182114 -3230.941718  1797.869132  4681.403685
0.061200  1760.956729 -3395.930802 -4383.812452    91.077181  4501.935292  3316.549338
0.062400 -2041.969804 -4854.393596 -1582.377008  3628.399741  4267.495033  -372.350976
0.063600 -4473.098574 -3002.804482  2134.715061  4557.054317  1342.363188 -3427.194934
0.064800 -3880.830283   376.984643  4034.144141  2751.270974 -1779.885920 -4094.051922
0.066000 -1466.965153  2885.485493  3718.234819    81.277667 -3615.663276 -2972.623352
0.067200  1232.843899  4002.868588  1969.316620 -2521.322992 -4032.149871  -587.067219
0.068400  3673.971785  3468.154868 -1060.795394 -4374.448174 -2287.658154  2711.063341
0.069600  4406.568698   576.207197 -4031.899217 -3591.873984  1362.811898  4591.795832
0.070800  2056.639485 -3013.600533 -4263.987384  -203.728860  4009.475177  3183.784329
0.072000 -1526.738973 -4225.819202 -1702.245822  2790.026979  3760.149212   189.280224
0.073200 -3487.524864 -2898.950735  1112.764932  3718.267397  1863.518539 -2196.970361
0.074400 -3614.405353  -696.031190  3078.664840  3173.224275  -577.407566 -3696.952910
0.075600 -2365.662881  1925.684102  3959.709335  1116.854321 -3204.010573 -3614.975823
0.076800   504.849156  4056.351963  2587.946127 -2139.041265 -4236.503178 -1034.712392
0.078000  3489.028335  3644.177422  -764.569066 -4173.619555 -2341.248965  2347.985170
0.079200  4050.511025   750.597646 -3410.266306 -3303.808489   849.773285  3854.213506
0.080400  2085.683161 -2141.669545 -3651.406749  -746.604896  2966.342330  3062.343773
0.081600  -505.290016 -3428.061766 -2199.073975  1656.203187  3495.889475  1141.976301
0.082800 -2581.010528 -3231.235574    16.268386  3328.306386  2640.530941 -1333.999844
0.084000 -3751.246143 -1565.155418  2616.974044  3635.691232   142.578545 -3608.533555
0.085200 -2918.011979  1466.384234  4072.972068  1572.324407 -2921.495092 -3742.275885
0.086400   118.421739  3799.392353  2715.579451 -1724.346203 -3947.879526 -1243.883030
0.087600  2918.878168  3387.034571  -283.703538 -3481.727172 -2363.758023  1546.901855
0.088800  3461.973711  1191.499930 -2424.786299 -3075.070183   -73.237894  2967.326283
0.090000  2462.540088  -975.808249 -3262.981124 -1652.295064  1981.652831  3290.635568
0.091200   617.059945 -2904.538726 -2948.941964   681.522604  3580.140816  2069.654553
0.092400 -2078.245774 -3706.966351  -708.786184  3226.210714  3162.049635  -884.309830
0.093600 -3858.091125 -1975.594939  2380.298204  3712.963455   396.576138 -3340.759015
0.094800 -2873.615325  1100.930484  3635.519974  1654.517420 -2299.160887 -3337.412446
0.096000  -293.269970  2991.044472  2569.159223  -895.278437 -3189.109101 -1644.418931
0.097200  1834.622174  3084.112540   615.046798 -2571.102791 -2656.004131   440.475890
0.098400  3016.654850  1988.842688 -1474.307791 -3225.341639 -1048.292387  2486.250836
0.099600  3022.631473  -191.890723 -3231.905006 -2307.283596  1514.500559  3528.824363
0.100800  1152.263000 -2721.926349 -3221.019659   331.816301  3486.681925  2256.194337
0.102000 -1787.585960 -3565.977700  -886.925029  2862.497972  2998.996319  -577.064976
0.103200 -3351.583264 -1929.955248  1805.256608  3210.266238   682.371768 -2571.107580
0.104400 -2623.315093   462.749785  2889.721979  1812.111547 -1384.496864 -2873.898200
0.105600  -933.904578  2096.584714  2624.546688    14.522836 -2645.742853 -2161.071234
0.106800   968.056733  3007.005645  1399.627948 -2001.913667 -3024.150615  -284.328079
0.108000  2896.671774  2510.125384 -1044.096751 -3358.483032 -1475.588813  2303.471565
