##TITLE=1D-13C-1-2-5-328-110-"no"-"yes"
##JCAMP-DX=5.01 $$ Magritek Spinsolve SPA1903 2.0.4.4423
##DATA TYPE=NMR FID
##DATA CLASS=NTUPLES
##ORIGIN=SPA1903 at Magritek
##OWNER=Copyright (C) 2025 by Magritek
##LONGDATE=2025/03/17 11:57:40.227
##.OBSERVE FREQUENCY=15.4860999900848
##.OBSERVE NUCLEUS=^13C
##.DELAY=( 20,  2000)
##.ACQUISITION MODE=SIMULTANEOUS
##.FIELD= 1.5
##.AVERAGES= 1
##.DIGITISER RES=16
##.SHIFT REFERENCE=(INTERNAL, Water, 4096, 0)
##$REFERENCE_POINT= 796.529    $$ Referencing label
$$      Distance of the zero axis position (in Hz) from the last data
$$      point (right edge); positive values -> right edge is below 0 Hz
##SPECTROMETER/DATA SYSTEM=Magritek
##SAMPLE DESCRIPTION=solvent=Water
$$ Bruker specific parameters
$$ --------------------------
##$AUNMP=   <proc_1d_nosref>
##$INSTRUM= <Magritek>
##$SI=      8192
##$TD=      8192
##$TDeff=   8192
##$SW=      322.870200
##$BF1=     15.4860999900848
##$SF=      15.4843965190859
##$LB=      0
##$PHC0=    217.3
##$PHC1=    0.0
##$REVERSE= yes
$$ End of Bruker specific parameters
$$ ---------------------------------
##NTUPLES=NMR FID
##VAR_NAME=        TIME,            FID/REAL,            FID/IMAG, PAGE NUMBER
##SYMBOL=             X,                   R,                   I,           N
##VAR_TYPE= INDEPENDENT,           DEPENDENT,           DEPENDENT,        PAGE
##VAR_FORM=        AFFN,                AFFN,                AFFN,        AFFN
##VAR_DIM=         8192,                8192,                8192,           2
##UNITS=        SECONDS,     ARBITRARY UNITS,     ARBITRARY UNITS,            
##FIRST=              0,                   0,                   0,           1
##LAST=    1.638199e+00,   0.707183670394425,  -0.838671330825041,           2
##MIN=                0,   -8824.50796258584,   -8372.99482059331,           1
##MAX=     1.638199e+00,    8502.25417236787,    9163.63573310344,           2
##FACTOR=             1,                   1,                   1,           1
##PAGE=N=1
##DATA TABLE=(X++(R..R)), XYDATA
0.000000     0.000000  3666.156166 -6718.137144 -8531.728868   393.781337  8502.254172
0.001200  6098.912651 -3751.960287 -8824.507963 -2992.602214  6332.568338  7692.431268
0.002400  -270.622661 -7661.131850 -5686.886560  3032.008768  7987.649194  3302.556552
0.003600 -5322.833734 -7485.292911  -606.685713  6988.535738  6150.393926 -2129.840768
0.004800 -7919.032692 -4129.754698  4802.498045  7979.028338  1341.199305 -7086.708143
0.006000 -6849.541828  1900.395531  8389.792023  4518.774307 -5017.534776 -8396.126397
0.007200 -1329.356405  7433.271825  6936.640820 -2201.658937 -8554.743404 -4251.095901
0.008400  5272.286966  8154.594949   934.961633 -7297.790281 -6429.623300  2282.298143
0.009600  8035.481477  3867.013173 -4917.584703 -7521.261827  -949.951365  6591.193224
0.010800  6020.803324 -1760.960361 -7291.121878 -3998.099154  4077.246296  7188.875614
0.012000  1599.467156 -5900.419358 -6261.133151   943.406065  7042.497381  4659.373360
0.013200 -3463.312868 -7511.804210 -2355.471644  5849.129302  6928.331291  -602.139586
0.014400 -7476.555730 -5134.661209  3625.322450  7983.780064  2415.520664 -6254.480901
0.015600 -7126.030160   950.668936  7773.579540  4835.176446 -4031.348933 -7774.515387
0.016800 -1893.477739  6205.096374  6539.539735 -1158.892223 -7245.373093 -4322.100654
0.018000  3725.819227  7016.601595  1823.477477 -5399.603115 -6032.463305   562.894184
0.019200  6423.878038  4511.347399 -2818.349492 -6725.731414 -2543.329187  4718.431620
0.020400  6352.097656   278.611444 -6284.528301 -5263.281545  2311.136909  7180.408798
0.021600  3211.093229 -4828.708618 -6983.519600  -455.227421  6736.377459  5601.517495
0.022800 -2554.164620 -7574.030376 -3140.297855  5215.340291  7035.263301    92.783866
0.024000 -6878.048899 -5250.941251  2828.354521  7288.550158  2719.737794 -5080.740903
0.025200 -6505.584211    20.852022  6373.912307  4852.209772 -2506.818926 -6654.382131
0.026400 -2704.731520  4394.518717  6106.626759   470.832565 -5692.777856 -4968.548617
0.027600  1768.464480  6363.839451  3254.371571 -3786.803889 -6282.651718 -1171.245691
0.028800  5473.812949  5531.632641 -1254.747453 -6635.806863 -3866.223488  3767.292193
0.030000  6811.430219  1429.526782 -5791.445964 -5902.162748  1369.804043  7023.824594
0.031200  3896.901736 -4136.823488 -6955.653028 -1077.999276  6044.725105  5582.394757
0.032400 -1743.868871 -6803.222300 -3410.812767  4118.438380  6408.383976   797.472769
0.033600 -5583.805015 -5001.219259  1535.864137  6031.917282  3220.270623 -3384.277192
0.034800 -5844.475116 -1262.322219  4780.180449  5032.549715  -735.352140 -5623.943925
0.036000 -3784.154975  2669.695088  6009.549013  2048.084817 -4561.974008 -5675.003988
0.037200   254.032599  5991.230016  4368.207081 -2736.794058 -6542.235907 -2203.805849
0.038400  4969.154393  5967.699551  -521.115111 -6363.891805 -4222.693650  3167.595476
0.039600  6521.070544  1738.706175 -5102.307877 -5517.393238   850.322135  6021.400160
0.040800  3709.989334 -3056.579190 -5924.163658 -1528.372026  4575.963667  4992.219111
0.042000  -578.842351 -5315.532522 -3615.683074  2394.116860  5476.478748  1958.007147
0.043200 -3915.399667 -5053.700053   -70.333029  5008.269696  4055.260631 -1838.071186
0.044400 -5601.387847 -2559.385122  3728.604791  5528.278070   471.566199 -5249.614530
0.045600 -4502.129400  1850.965048  5983.125210  2720.730877 -3989.524219 -5788.928682
0.046800  -335.355734  5567.856996  4469.325751 -2196.969868 -6039.714920 -2367.479629
0.048000  4161.642025  5471.123191    11.433705 -5369.622745 -4030.047068  2214.659342
0.049200  5563.018352  2063.523571 -3780.412101 -4908.265938  -151.469951  4682.637462
0.050400  3836.371945 -1599.433394 -5038.820012 -2396.263846  3082.650563  4856.115662
0.051600   825.577048 -4250.799001 -4282.485624   931.540777  5151.916032  3109.733078
0.052800 -2853.473339 -5412.302168 -1286.547757  4545.818994  4819.557198  -947.751717
0.054000 -5638.674621 -3305.440344  3227.413472  5740.824500  1043.075342 -4942.760149
0.055200 -4703.989339  1380.720110  5653.786104  2853.804290 -3403.895890 -5325.631853
0.056400  -685.046616  4653.757893  4180.047654 -1337.258894 -5058.920323 -2593.329962
0.057600  2889.189780  4777.825960   938.439787 -3959.667505 -4086.179259   676.512336
0.058800  4629.072426  3009.057922 -2250.446150 -4830.072624 -1586.424452  3648.190086
0.060000  4536.249792  -136.435134 -4779.521471 -3589.859146  2120.277936  5292.838048
0.061200  1906.646977 -3898.568153 -4917.758158   179.269751  5120.569669  3707.777618
0.062400 -2385.301638 -5508.206212 -1717.745448  4173.011420  4799.393529  -509.665446
0.063600 -5095.973287 -3342.444873  2494.646773  5166.736761  1432.637220 -3966.806093
0.064800 -4362.733474   534.378647  4606.266344  3039.836521 -2108.340449 -4630.636237
0.066000 -1560.835830  3339.364009  4157.849584   -18.463049 -4121.887805 -3270.920353
0.067200  1489.540058  4505.190628  2125.196307 -2905.847695 -4499.388132  -571.146589
0.068400  4168.549362  3837.933098 -1271.725368 -4913.304461 -2504.056600  3102.654290
0.069600  4931.920818   575.370968 -4577.166701 -4000.882368  1613.615771  5185.717813
0.070800  2243.990249 -3463.164366 -4778.445027  -141.845859  4575.965604  3535.740748
0.072000 -1817.053560 -4778.759779 -1825.397528  3238.984507  4208.270931    94.837223
0.073200 -3978.650144 -3179.727440  1366.537803  4181.263297  1991.340914 -2551.994937
0.074400 -4021.950734  -666.653996  3498.860063  3477.674837  -748.841815 -4143.936928
0.075600 -2562.377032  2219.277134  4406.284791  1157.882999 -3638.062456 -3986.924845
0.076800   648.043293  4542.288066  2815.936497 -2457.028399 -4722.114936 -1083.695238
0.078000  3959.561065  4042.713637  -954.549236 -4701.924952 -2542.315260  2714.333325
0.079200  4518.891129   740.505906 -3880.826778 -3655.083393  1050.069747  4349.648239
0.080400  2242.997931 -2503.033446 -4065.867919  -715.409876  3385.071009  3360.988028
0.081600  -678.983757 -3852.117563 -2359.474301  1951.041450  3872.996496  1152.824773
0.082800 -2937.404277 -3531.839565   127.122262  3719.208384  2846.572147 -1567.918238
0.084000 -4155.173635 -1650.819820  2957.827340  3992.457223    76.213138 -4028.192324
0.085200 -3183.006195  1695.293920  4534.351422  1684.458073 -3305.808809 -4148.240253
0.086400   214.160323  4274.896969  2967.627997 -2007.360872 -4410.894101 -1309.083328
0.087600  3329.674593  3744.799095  -428.664138 -3927.444412 -2553.470767  1835.259932
0.088800  3855.013990  1215.104060 -2773.866172 -3366.423875    35.422128  3338.282856
0.090000  2644.400121 -1191.818180 -3609.934888 -1726.144104  2252.523567  3587.196937
0.091200   594.939032 -3226.282676 -3199.325381   823.721032  3962.884342  2221.411031
0.092400 -2351.499903 -4070.613929  -710.446805  3603.849728  3463.480086 -1043.641114
0.093600 -4286.953243 -2137.233815  2712.018658  4109.592489   357.238753 -3748.814132
0.094800 -3140.053640  1309.883269  4060.619150  1768.913010 -2631.237084 -3685.476652
0.096000  -212.567498  3377.005530  2772.712056 -1099.970259 -3539.693096 -1723.673843
0.097200  2113.910270  3377.020149   570.369768 -2891.153657 -2860.448577   588.249375
0.098400  3327.331567  2092.674537 -1688.068075 -3505.203641 -1064.256007  2772.071792
0.099600  3267.669478  -287.402696 -3559.368444 -2467.530569  1716.023504  3854.033432
0.100800  1210.226326 -3025.207880 -3515.453031   432.699212  3861.229490  2432.650485
0.102000 -2033.012945 -3930.180423  -903.858017  3208.757330  3266.031372  -724.448411
0.103200 -3731.870342 -2054.870284  2084.721992  3535.686449   640.441411 -2907.455219
0.104400 -2822.640752   633.124643  3205.157736  1888.967839 -1621.604098 -3124.177547
0.105600  -902.291356  2364.263907  2798.921543  -101.884334 -2898.189889 -2255.647117
0.106800  1131.924663  3241.984125  1441.388668 -2224.439673 -3255.576838  -232.623541
0.108000  3176.518915  2674.480782 -1204.118109 -3657.472084 -1550.312092  2560.564095
