##TITLE=1D-13C-1-2-5-328-110-"no"-"yes"
##JCAMP-DX=5.01 $$ Magritek Spinsolve SPA1903 2.0.4.4423
##DATA TYPE=NMR FID
##DATA CLASS=NTUPLES
##ORIGIN=SPA1903 at Magritek
##OWNER=Copyright (C) 2025 by Magritek
##LONGDATE=2025/03/17 11:58:10.457
##.OBSERVE FREQUENCY=15.4860999900848
##.OBSERVE NUCLEUS=^13C
##.DELAY=( 20,  2000)
##.ACQUISITION MODE=SIMULTANEOUS
##.FIELD= 1.5
##.AVERAGES= 1
##.DIGITISER RES=16
##.SHIFT REFERENCE=(INTERNAL, Water, 4096, 0)
##$REFERENCE_POINT= 796.529    $$ Referencing label
$$      Distance of the zero axis position (in Hz) from the last data
$$      point (right edge); positive values -> right edge is below 0 Hz
##SPECTROMETER/DATA SYSTEM=Magritek
##SAMPLE DESCRIPTION=solvent=Water
$$ Bruker specific parameters
$$ --------------------------
##$AUNMP=   <proc_1d_nosref>
##$INSTRUM= <Magritek>
##$SI=      8192
##$TD=      8192
##$TDeff=   8192
##$SW=      322.870200
##$BF1=     15.4860999900848
##$SF=      15.4843965190859
##$LB=      0
##$PHC0=    217.1
##$PHC1=    0.0
##$REVERSE= yes
$$ End of Bruker specific parameters
$$ ---------------------------------
##NTUPLES=NMR FID
##VAR_NAME=        TIME,            FID/REAL,            FID/IMAG, PAGE NUMBER
##SYMBOL=             X,                   R,                   I,           N
##VAR_TYPE= INDEPENDENT,           DEPENDENT,           DEPENDENT,        PAGE
##VAR_FORM=        AFFN,                AFFN,                AFFN,        AFFN
##VAR_DIM=         8192,                8192,                8192,           2
##UNITS=        SECONDS,     ARBITRARY UNITS,     ARBITRARY UNITS,            
##FIRST=              0,                   0,                   0,           1
##LAST=    1.638199e+00,    0.38680283774442,  -0.482240349681673,           2
##MIN=                0,   -6891.09802770881,   -6619.58229929195,           1
##MAX=     1.638199e+00,    6659.63474484262,    7170.38496908397,           2
##FACTOR=             1,                   1,                   1,           1
##PAGE=N=1
##DATA TABLE=(X++(R..R)), XYDATA
0.000000     0.000000  2873.507307 -5245.123740 -6687.418551   305.303159  6659.634745
0.001200  4764.353489 -2946.171194 -6891.098028 -2326.740660  4947.790964  6010.159637
0.002400  -209.756182 -5987.174675 -4445.237588  2373.319786  6238.165799  2587.299185
0.003600 -4147.135108 -5847.359189  -499.497115  5444.124699  4828.913989 -1639.163467
0.004800 -6194.082705 -3262.710859  3737.168340  6272.392056  1094.382531 -5546.582548
0.006000 -5412.685642  1454.638884  6610.487889  3597.623989 -3934.950975 -6633.767339
0.007200 -1070.019713  5857.845106  5484.097973 -1715.306306 -6749.790660 -3375.112070
0.008400  4150.366830  6450.325371   755.025072 -5763.522993 -5091.154317  1793.092728
0.009600  6344.763290  3057.387350 -3863.806946 -5933.378617  -771.170866  5192.012135
0.010800  4762.386174 -1364.803205 -5741.437432 -3182.204283  3183.572066  5676.830840
0.012000  1311.820249 -4635.218147 -4986.273864   691.253100  5576.492011  3745.616149
0.013200 -2708.009331 -5971.640510 -1921.283126  4617.140616  5530.646112  -432.553747
0.014400 -5944.696847 -4130.905049  2852.360418  6376.340039  1960.732394 -4967.400384
0.015600 -5689.176874   718.494203  6181.316217  3895.876819 -3173.727651 -6203.884208
0.016800 -1538.019761  4930.894469  5216.565831  -894.176067 -5745.094777 -3472.221175
0.018000  2918.410012  5599.011386  1496.910427 -4283.777483 -4830.737937   397.765497
0.019200  5096.711509  3640.546875 -2182.727866 -5366.395863 -2100.411875  3734.312426
0.020400  5115.597790   282.552757 -5007.967442 -4262.455577  1790.910133  5753.048858
0.021600  2636.372082 -3826.408545 -5632.068088  -431.746479  5387.600424  4542.572126
0.022800 -2001.724952 -6083.342600 -2566.114678  4148.050668  5670.483752   134.809069
0.024000 -5508.588332 -4257.278569  2219.335485  5844.181044  2235.299500 -4039.077906
0.025200 -5247.410570   -36.052325  5087.442116  3929.122594 -1947.252242 -5337.295832
0.026400 -2238.931365  3478.511323  4927.826588   448.395314 -4546.571143 -4046.855456
0.027600  1344.060913  5107.544352  2701.678054 -2988.373163 -5099.229175 -1025.185481
0.028800  4384.440601  4521.225271  -936.935799 -5353.501399 -3199.305376  2981.071048
0.030000  5537.341541  1228.026516 -4661.511809 -4821.801964  1052.198733  5683.055892
0.031200  3208.356316 -3291.751252 -5638.386655  -938.822483  4863.737170  4567.568661
0.032400 -1347.436546 -5498.118572 -2811.757341  3266.390782  5187.535115   729.197967
0.033600 -4467.460928 -4108.408698  1155.754231  4878.146492  2688.842343 -2667.666680
0.034800 -4748.726127 -1112.226602  3820.765618  4153.154262  -495.818578 -4567.265662
0.036000 -3169.047323  2098.609104  4918.077954  1757.957102 -3667.421764 -4680.928086
0.037200   114.368477  4867.331040  3639.102030 -2168.916658 -5366.629188 -1882.816915
0.038400  4008.324319  4916.524200  -347.111057 -5177.018355 -3515.663557  2513.026892
0.039600  5339.504204  1505.654332 -4112.197771 -4550.693485   609.074130  4889.361588
0.040800  3097.286690 -2413.723267 -4840.121532 -1350.725837  3670.148249  4140.467357
0.042000  -357.487918 -4319.289656 -3044.091224  1858.345466  4492.023295  1716.321834
0.043200 -3126.397380 -4204.109816  -184.351218  4082.089477  3425.788272 -1412.214989
0.044400 -4618.663510 -2213.571643  2991.377065  4599.658705   505.044886 -4293.752996
0.045600 -3800.488184  1433.502912  4943.658037  2334.811262 -3225.381981 -4811.127789
0.046800  -379.221171  4546.775048  3761.151108 -1704.522910 -4975.241981 -2045.570080
0.048000  3362.089145  4541.260643   114.117027 -4370.998483 -3388.662192  1704.919500
0.049200  4563.281789  1821.033246 -3015.495197 -4093.967325  -259.642499  3807.632637
0.050400  3252.325345 -1186.916263 -4151.845093 -2112.400302  2441.460809  4071.196016
0.051600   824.137746 -3473.283115 -3639.496221   650.402790  4264.669034  2692.892872
0.052800 -2273.028507 -4533.106789 -1190.785900  3721.001223  4082.701103  -685.463792
0.054000 -4673.285293 -2833.030036  2590.586248  4781.213053   976.969893 -4032.254581
0.055200 -3964.646732  1032.263922  4663.222553  2463.055439 -2714.759931 -4430.387866
0.056400  -691.114387  3780.116480  3538.500473  -966.752315 -4167.378261 -2275.528942
0.057600  2281.036767  4003.900803   930.019072 -3209.521038 -3478.791146   421.405583
0.058800  3826.660003  2630.099509 -1758.407738 -4059.880165 -1459.225346  2969.300070
0.060000  3861.407341     8.954201 -3962.906539 -3107.022317  1660.205173  4443.032276
0.061200  1718.591031 -3185.873939 -4174.885193    36.393961  4248.002663  3182.956003
0.062400 -1878.678523 -4598.063853 -1552.339635  3398.790511  4065.230760  -302.972017
0.063600 -4216.441458 -2881.725176  1967.732015  4308.892299  1314.315767 -3207.539727
0.064800 -3694.763222   297.455070  3794.809351  2649.594668 -1630.598676 -3876.598609
0.066000 -1442.249085  2685.778328  3548.494054   148.825926 -3403.111989 -2867.442984
0.067200  1112.007480  3804.693142  1923.793775 -2355.408909 -3848.673747  -615.250594
0.068400  3460.481013  3334.344724  -949.799093 -4146.975347 -2224.056487  2532.231321
0.069600  4202.002873   599.432476 -3801.333922 -3443.514993  1244.589775  4356.186238
0.070800  2000.675408 -2817.093879 -4057.132378  -251.502090  3779.214767  3058.217873
0.072000 -1389.716087 -3996.542838 -1664.525037  2596.023723  3586.944110   244.376830
0.073200 -3276.823482 -2786.942316   995.943975  3521.658023  1823.113525 -2032.141246
0.074400 -3449.982910  -725.919291  2897.194949  3059.680950  -491.567572 -3516.638050
0.075600 -2307.055470  1776.363184  3785.797766  1119.092143 -3022.094034 -3466.696873
0.076800   423.444638  3844.113262  2501.487347 -1990.861661 -4038.483126 -1037.172181
0.078000  3284.388421  3492.346502  -674.314193 -3954.359784 -2271.072292  2183.436834
0.079200  3858.513555   764.834702 -3204.918529 -3167.411650   738.790883  3641.493452
0.080400  2031.365514 -1983.572856 -3481.176506  -773.916284  2780.872303  2945.049382
0.081600  -416.394200 -3241.346081 -2144.928451  1515.894908  3338.137922  1151.837719
0.082800 -2420.863066 -3112.595087   -43.451082  3154.011130  2555.435190 -1221.499292
0.084000 -3579.817433 -1546.386337  2455.056314  3494.316630   193.820003 -3425.146573
0.085200 -2825.645175  1351.344381  3885.336613  1543.497316 -2743.877747 -3592.704479
0.086400    51.708899  3599.670401  2619.341821 -1591.869494 -3756.781327 -1240.532096
0.087600  2730.493379  3242.123410  -209.431199 -3284.445743 -2296.147993  1411.107714
0.088800  3299.315801  1201.243887 -2257.688305 -2953.588603  -140.584017  2808.163624
0.090000  2397.213694  -874.684034 -3121.285261 -1637.995133  1849.149096  3169.240867
0.091200   644.689469 -2752.904546 -2855.014193   602.425625  3423.852196  2027.284544
0.092400 -1949.399853 -3558.203968  -723.490495  3061.801188  3049.607821  -801.137440
0.093600 -3673.980130 -1933.320560  2231.577077  3557.215630   431.621867 -3157.242618
0.094800 -2777.698238   998.316407  3461.325643  1633.274151 -2143.409986 -3202.159246
0.096000  -343.119081  2823.100318  2491.117321  -791.830615 -3036.556273 -1625.038247
0.097200  1702.781754  2956.883956   652.917103 -2423.413132 -2580.120863   359.666777
0.098400  2885.332891  1953.270855 -1371.516717 -3103.042856 -1060.843554  2356.671265
0.099600  2933.615549  -127.568694 -3090.419216 -2258.158563  1409.824958  3390.130752
0.100800  1155.093114 -2577.584602 -3114.031468   264.684828  3324.702993  2208.299241
0.102000 -1665.521242 -3424.921106  -905.359003  2701.249893  2895.378659  -491.323882
0.103200 -3187.198013 -1892.363077  1669.858812  3078.815886   714.083900 -2424.278597
0.104400 -2543.392110   377.714408  2752.586992  1797.598183 -1260.898715 -2768.451260
0.105600  -970.388438  1974.212001  2559.855187    78.823208 -2532.225912 -2123.180765
0.106800   876.624666  2893.619739  1405.278494 -1892.519391 -2939.962342  -328.128884
0.108000  2769.361336  2454.105406  -961.320809 -3233.579149 -1468.810952  2171.840551
