##TITLE=1D-13C-1-2-5-328-110-"no"-"yes"
##JCAMP-DX=5.01 $$ Magritek Spinsolve SPA1903 2.0.4.4423
##DATA TYPE=NMR FID
##DATA CLASS=NTUPLES
##ORIGIN=SPA1903 at Magritek
##OWNER=Copyright (C) 2025 by Magritek
##LONGDATE=2025/03/17 11:56:51.829
##.OBSERVE FREQUENCY=15.4860999900848
##.OBSERVE NUCLEUS=^13C
##.DELAY=( 20,  2000)
##.ACQUISITION MODE=SIMULTANEOUS
##.FIELD= 1.5
##.AVERAGES= 1
##.DIGITISER RES=16
##.SHIFT REFERENCE=(INTERNAL, Water, 4096, 0)
##$REFERENCE_POINT= 796.529    $$ Referencing label
$$      Distance of the zero axis position (in Hz) from the last data
$$      point (right edge); positive values -> right edge is below 0 Hz
##SPECTROMETER/DATA SYSTEM=Magritek
##SAMPLE DESCRIPTION=solvent=Water
$$ Bruker specific parameters
$$ --------------------------
##$AUNMP=   <proc_1d_nosref>
##$INSTRUM= <Magritek>
##$SI=      8192
##$TD=      8192
##$TDeff=   8192
##$SW=      322.870200
##$BF1=     15.4860999900848
##$SF=      15.4843965190859
##$LB=      0
##$PHC0=    217.5
##$PHC1=    0.0
##$REVERSE= yes
$$ End of Bruker specific parameters
$$ ---------------------------------
##NTUPLES=NMR FID
##VAR_NAME=        TIME,            FID/REAL,            FID/IMAG, PAGE NUMBER
##SYMBOL=             X,                   R,                   I,           N
##VAR_TYPE= INDEPENDENT,           DEPENDENT,           DEPENDENT,        PAGE
##VAR_FORM=        AFFN,                AFFN,                AFFN,        AFFN
##VAR_DIM=         8192,                8192,                8192,           2
##UNITS=        SECONDS,     ARBITRARY UNITS,     ARBITRARY UNITS,            
##FIRST=              0,                   0,                   0,           1
##LAST=    1.638199e+00,  -0.388249333600678,   0.363931013710843,           2
##MIN=                0,   -13275.2031711577,   -12548.1773306602,           1
##MAX=     1.638199e+00,    12760.0117231212,    13757.6955453183,           2
##FACTOR=             1,                   1,                   1,           1
##PAGE=N=1
##DATA TABLE=(X++(R..R)), XYDATA
0.000000     0.000000  5516.585755 -10134.915836 -12825.769457   591.224080 12760.011723
0.001200  9183.677758 -5596.591320 -13275.203171 -4530.058204  9529.651023 11577.736609
0.002400  -409.634093 -11509.311267 -8547.006126  4543.499455 12004.130306  4973.827134
0.003600 -8017.864742 -11238.528379  -847.477498 10496.962447  9164.995850 -3233.044924
0.004800 -11832.105861 -6132.133238  7216.994844 11921.352730  1920.765355 -10629.524324
0.006000 -10133.722470  2928.871507 12466.365288  6631.647033 -7493.750047 -12421.541557
0.007200 -1902.245878 11042.046477 10235.684515 -3317.644474 -12662.872013 -6210.322808
0.008400  7846.481468 12010.724437  1331.766507 -10790.826496 -9471.578446  3422.346094
0.009600 11882.095174  5649.479694 -7324.330164 -11074.473345 -1317.680643  9763.918213
0.010800  8823.209887 -2681.054815 -10759.333215 -5806.917674  6100.051920 10557.998440
0.012000  2209.524591 -8759.377593 -9082.140475  1529.543947 10332.263786  6702.858317
0.013200 -5183.884576 -10962.836363 -3293.539945  8648.391418 10011.820155 -1052.553484
0.014400 -10901.062798 -7342.333693  5374.386327 11588.316284  3381.497443 -9192.160213
0.015600 -10299.397930  1535.345336 11340.091808  6889.680870 -5977.578009 -11247.468928
0.016800 -2624.061612  9098.592457  9432.389025 -1858.662440 -10575.403303 -6105.873409
0.018000  5578.736935 10130.324303  2452.279264 -7921.829955 -8640.896545  1004.814413
0.019200  9357.285401  6347.186864 -4286.845560 -9676.079204 -3433.014238  6929.733786
0.020400  9032.559364   197.592141 -9093.341260 -7408.730713  3518.309731 10309.613970
0.021600  4384.714586 -7084.613887 -9903.350002  -444.067461  9705.065117  7865.934758
0.022800 -3851.043117 -10845.392051 -4282.055319  7628.573417  9963.526887  -103.244364
0.024000 -9915.714744 -7335.674971  4239.787322 10400.568767  3683.621784 -7413.114223
0.025200 -9211.954034   278.876299  9207.645329  6722.990875 -3820.191563 -9471.058798
0.026400 -3612.393072  6435.643908  8599.517774   412.056667 -8213.118804 -6871.211562
0.027600  2790.031726  9036.067536  4336.978145 -5566.016575 -8776.135060 -1388.114255
0.028800  7836.646371  7641.268351 -2024.620047 -9384.437175 -5193.862836  5500.298395
0.030000  9471.903888  1756.396179 -8236.572996 -8155.238436  2135.930470  9918.176139
0.031200  5280.666170 -6020.488972 -9699.639605 -1252.206672  8602.761922  7696.231156
0.032400 -2663.747466 -9599.677177 -4585.044808  6025.497195  8950.615030   806.062524
0.033600 -7997.569755 -6812.462460  2447.308381  8465.094376  4245.198987 -4972.379616
0.034800 -8083.600230 -1435.797679  6836.426659  6793.623414 -1345.934271 -7820.971729
0.036000 -4965.048897  3915.401244  8251.577603  2567.107479 -6462.922773 -7685.730834
0.037200   634.126501  8308.493578  5782.232376 -3985.310089 -8965.205732 -2802.229127
0.038400  7003.512742  8123.291810  -984.101320 -8863.131993 -5592.439857  4622.937543
0.039600  8951.696016  2111.792184 -7212.990095 -7457.563037  1478.195578  8384.225852
0.040800  4844.905211 -4510.754596 -8094.042666 -1754.164173  6486.248235  6657.873510
0.042000 -1139.814391 -7356.989230 -4660.286665  3566.005615  7433.284176  2323.860572
0.043200 -5560.934861 -6690.795219   254.435937  6873.240859  5222.428954 -2768.234443
0.044400 -7546.410313 -3167.953144  5254.511909  7338.925600   298.263848 -7199.700698
0.045600 -5825.380830  2768.898134  8041.624778  3405.412406 -5576.413580 -7714.919059
0.046800  -135.943772  7660.776007  5803.622352 -3268.515885 -8146.672213 -2896.639859
0.048000  5842.701509  7274.377120  -318.118081 -7425.409717 -5197.285878  3370.876500
0.049200  7502.039184  2396.730861 -5356.418794 -6439.053945   184.569187  6453.587481
0.050400  4868.653108 -2552.248914 -6762.956773 -2795.200391  4406.586115  6280.644473
0.051600   705.674050 -5770.555134 -5433.033882  1554.418882  6851.362224  3807.140241
0.052800 -4048.366898 -7052.153021 -1364.788735  6157.440338  6192.551038 -1538.343335
0.054000 -7537.216084 -4134.288714  4564.038307  7569.074736  1042.752274 -6770.693739
0.055200 -6053.107542  2191.883836  7598.250625  3491.392694 -4852.338914 -7018.444405
0.056400  -500.983568  6435.300318  5302.921941 -2206.538398 -6773.872113 -3051.770347
0.057600  4179.238308  6200.985656   813.396163 -5428.762632 -5121.146752  1310.292432
0.058800  6134.675756  3579.027742 -3272.511818 -6202.740917 -1689.854399  4942.475111
0.060000  5722.511854  -513.332376 -6320.155677 -4406.313012  3070.957156  6851.693829
0.061200  2150.868913 -5276.518676 -6245.518793   542.989677  6789.131994  4606.859702
0.062400 -3434.627185 -7195.956254 -1894.616996  5707.992976  6095.796315 -1028.346751
0.063600 -6766.608857 -4101.273264  3613.909164  6764.850663  1484.690668 -5484.468395
0.064800 -5491.473962  1145.567323  6118.676422  3607.187528 -3123.673217 -5980.379237
0.066000 -1603.513630  4633.797329  5157.801250  -510.942228 -5425.385429 -3824.627724
0.067200  2274.793196  5697.207690  2347.511347 -3952.956177 -5586.851359  -351.160324
0.068400  5443.048996  4613.496306 -1928.980135 -6232.748638 -2903.430384  4162.557539
0.069600  6201.890961   430.905831 -6013.190904 -4915.554975  2398.748793  6684.894133
0.070800  2558.568922 -4730.665926 -6037.473406   196.363336  6085.700455  4287.422425
0.072000 -2765.757126 -6188.072215 -1909.872180  4511.742021  5203.484108  -379.112230
0.073200 -5256.685248 -3696.411996  2187.682999  5308.227340  2063.207924 -3570.863827
0.074400 -4867.468717  -353.516131  4552.503390  4023.991461 -1316.853463 -5163.426659
0.075600 -2852.397784  3030.630322  5381.038911  1091.491019 -4716.046866 -4757.095572
0.076800  1147.825030  5718.001000  3225.054562 -3352.853307 -5865.542161 -1019.838030
0.078000  5205.808644  4885.304651 -1602.988701 -6000.812065 -2848.815642  3758.160255
0.079200  5613.152675   525.106293 -5147.733272 -4375.009907  1803.374997  5582.978199
0.080400  2377.464184 -3565.272155 -4958.680809  -405.161254  4479.193610  3917.363199
0.081600 -1324.171177 -4887.955171 -2491.215373  2844.936254  4655.226465   930.916683
0.082800 -3834.363593 -4067.006697   558.247530  4631.476792  3150.142543 -2270.612055
0.084000 -5018.463040 -1633.223408  3825.658980  4691.349304  -234.121905 -5040.884844
0.085200 -3678.928585  2391.825767  5596.223242  1752.984963 -4347.358992 -4993.198942
0.086400   632.040218  5445.592244  3420.684603 -2869.566003 -5513.883946 -1239.054263
0.087600  4489.240949  4491.088073 -1030.513920 -5069.659030 -2784.672859  2747.867512
0.088800  4732.980095  1000.061399 -3756.448390 -3892.833529   557.105998  4224.308333
0.090000  2822.890345 -1886.287744 -4307.959738 -1637.897519  2973.155892  4114.806580
0.091200   340.563117 -3996.133627 -3599.091677  1300.546704  4772.946080  2374.592864
0.092400 -3069.042441 -4810.659480  -571.884047  4499.598528  4043.895048 -1570.473769
0.093600 -5318.574429 -2329.270636  3621.013792  4937.902578    51.795166 -4792.304420
0.094800 -3615.087169  1995.743497  5051.790548  1798.535191 -3610.766632 -4389.870643
0.096000   244.406783  4348.995533  3036.315344 -1793.879844 -4307.491186 -1654.471240
0.097200  2914.164966  3914.950877   195.743307 -3669.320706 -3072.409019  1128.508689
0.098400  3942.723408  2107.670134 -2280.075396 -4039.991084  -891.723150  3464.295717
0.099600  3628.103929  -688.898147 -4228.374492 -2624.889321  2264.420212  4491.183107
0.100800  1150.411024 -3772.408884 -4036.387855   840.071315  4697.496850  2636.002799
0.102000 -2731.017833 -4659.007634  -747.252786  4082.833656  3761.776183 -1276.675843
0.103200 -4623.378435 -2127.025335  2918.308391  4182.937899   283.123471 -3778.598037
0.104400 -3098.033675  1264.825992  3914.734538  1797.272146 -2353.203622 -3565.947672
0.105600  -533.060475  3030.304159  2943.494340  -584.540184 -3393.621637 -2214.889922
0.106800  1620.345060  3631.192375  1291.829764 -2751.457632 -3550.402813    58.596508
0.108000  3719.288677  2831.060263 -1638.489484 -4206.897404 -1542.619061  3197.417425
