##TITLE=1D-13C-1-2-5-328-110-"no"-"yes"
##JCAMP-DX=5.01 $$ Magritek Spinsolve SPA1903 2.0.4.4423
##DATA TYPE=NMR FID
##DATA CLASS=NTUPLES
##ORIGIN=SPA1903 at Magritek
##OWNER=Copyright (C) 2025 by Magritek
##LONGDATE=2025/03/17 11:59:51.813
##.OBSERVE FREQUENCY=15.4860999900848
##.OBSERVE NUCLEUS=^13C
##.DELAY=( 20,  2000)
##.ACQUISITION MODE=SIMULTANEOUS
##.FIELD= 1.5
##.AVERAGES= 1
##.DIGITISER RES=16
##.SHIFT REFERENCE=(INTERNAL, Water, 4096, 0)
##$REFERENCE_POINT= 796.529    $$ Referencing label
$$      Distance of the zero axis position (in Hz) from the last data
$$      point (right edge); positive values -> right edge is below 0 Hz
##SPECTROMETER/DATA SYSTEM=Magritek
##SAMPLE DESCRIPTION=solvent=Water
$$ Bruker specific parameters
$$ --------------------------
##$AUNMP=   <proc_1d_nosref>
##$INSTRUM= <Magritek>
##$SI=      8192
##$TD=      8192
##$TDeff=   8192
##$SW=      322.870200
##$BF1=     15.4860999900848
##$SF=      15.4843965190859
##$LB=      0
##$PHC0=    216.6
##$PHC1=    0.0
##$REVERSE= yes
$$ End of Bruker specific parameters
$$ ---------------------------------
##NTUPLES=NMR FID
##VAR_NAME=        TIME,            FID/REAL,            FID/IMAG, PAGE NUMBER
##SYMBOL=             X,                   R,                   I,           N
##VAR_TYPE= INDEPENDENT,           DEPENDENT,           DEPENDENT,        PAGE
##VAR_FORM=        AFFN,                AFFN,                AFFN,        AFFN
##VAR_DIM=         8192,                8192,                8192,           2
##UNITS=        SECONDS,     ARBITRARY UNITS,     ARBITRARY UNITS,            
##FIRST=              0,                   0,                   0,           1
##LAST=    1.638199e+00,   -0.56904635622816,   0.473352232414314,           2
##MIN=                0,   -2911.50448803606,   -2857.49645617015,           1
##MAX=     1.638199e+00,    2821.92417161168,    3033.92981769965,           2
##FACTOR=             1,                   1,                   1,           1
##PAGE=N=1
##DATA TABLE=(X++(R..R)), XYDATA
0.000000     0.000000  1232.508449 -2201.271528 -2836.266595   112.390877  2809.417498
0.001200  2021.742398 -1233.095280 -2911.504488  -996.736245  2075.988162  2549.794295
0.002400   -64.262572 -2528.513821 -1899.466319   981.556358  2636.216219  1107.837861
0.003600 -1734.753596 -2482.462929  -243.119377  2292.736481  2075.373547  -659.002255
0.004800 -2630.299895 -1425.771848  1557.288105  2685.653913   516.334022 -2338.635680
0.006000 -2341.671160   578.426049  2821.924172  1580.164170 -1649.476438 -2854.761270
0.007200  -503.407084  2491.115886  2383.918424  -693.997416 -2895.441403 -1486.733451
0.008400  1752.392439  2782.419731   372.104086 -2451.887966 -2213.652251   728.594810
0.009600  2719.658182  1355.049624 -1620.938237 -2558.531578  -385.970088  2200.919247
0.010800  2085.042646  -529.123292 -2466.288455 -1423.746270  1314.107268  2464.756556
0.012000   642.322135 -1964.890050 -2198.550241   230.020477  2405.880328  1681.927379
0.013200 -1119.005752 -2610.982545  -908.562840  1963.130449  2447.172198  -114.756011
0.014400 -2584.203714 -1871.267962  1192.450019  2799.123230   917.281258 -2127.990774
0.015600 -2514.479537   242.760887  2677.154009  1759.278937 -1321.736977 -2724.152302
0.016800  -744.043685  2114.017263  2313.070922  -310.991538 -2488.090795 -1587.061355
0.018000  1199.653311  2460.452660   739.045982 -1825.670638 -2158.683978    87.709780
0.019200  2202.206881  1661.585813  -874.290133 -2363.570718 -1015.195876  1579.107648
0.020400  2295.460371   219.345454 -2173.788926 -1944.908723   704.651567  2544.070124
0.021600  1254.174486 -1623.610209 -2527.097851  -282.337443  2351.548783  2076.836129
0.022800  -797.751328 -2692.372008 -1220.185402  1774.356699  2542.023735   153.654496
0.024000 -2401.562753 -1950.585312   895.008833  2588.872223  1075.875431 -1712.577759
0.025200 -2348.146590  -119.867932  2204.966863  1810.733977  -764.167158 -2355.016089
0.026400 -1084.637594  1457.164835  2223.695462   311.890381 -1967.762097 -1877.485557
0.027600   486.034602  2271.422648  1310.877020 -1248.239510 -2326.802489  -582.326049
0.028800  1912.839436  2093.606357  -313.891267 -2388.700620 -1539.927683  1248.531118
0.030000  2519.306297   667.205580 -2042.466908 -2230.183975   369.116142  2534.882417
0.031200  1530.438491 -1386.362814 -2554.561129  -534.398882  2123.545696  2113.214826
0.032400  -494.369621 -2443.064365 -1354.156079  1364.444540  2349.437508   455.327854
0.033600 -1929.072558 -1923.472359   385.107304  2177.338370  1324.215460 -1094.504446
0.034800 -2173.742350  -648.937011  1651.984821  1963.802897   -88.430221 -2053.578062
0.036000 -1556.752084   841.676031  2268.799035   935.015696 -1591.955034 -2197.558019
0.037200   -73.142869  2194.919680  1766.536548  -882.236883 -2468.559511  -979.110221
0.038400  1749.156666  2300.916673   -27.710269 -2321.759114 -1704.651030  1024.780193
0.039600  2449.841979   820.885891 -1786.765267 -2147.786119   129.869695  2187.002146
0.040800  1528.528219  -966.777350 -2226.838785  -766.760049  1580.548368  1969.113741
0.042000   -11.013688 -1936.441290 -1517.198826   713.101817  2083.837414   946.034305
0.043200 -1339.058214 -2011.740032  -251.275085  1838.259051  1718.246870  -512.663412
0.044400 -2154.954402 -1169.630151  1288.444961  2201.099788   390.065596 -1944.127457
0.045600 -1889.999496   530.410208  2310.206892  1220.477120 -1398.264456 -2292.403463
0.046800  -322.191741  2045.351195  1850.203056  -646.146837 -2306.775687 -1092.660612
0.048000  1446.696136  2160.790330   211.659405 -1950.415338 -1683.515151   625.252510
0.049200  2113.187178  1009.076488 -1268.730126 -1971.060186  -299.620222  1696.706674
0.050400  1643.131916  -376.574321 -1940.456839 -1168.595088  1009.414436  1985.441115
0.051600   571.859232 -1564.849912 -1836.670714   146.364827  2003.514055  1426.080144
0.052800  -946.906702 -2196.250820  -726.023686  1683.813060  2027.077023  -169.527148
0.054000 -2177.026340 -1469.149939  1089.268424  2284.038824   623.598046 -1803.100283
0.055200 -1959.675376   311.350651  2154.033775  1307.112018 -1121.797547 -2115.521060
0.056400  -512.928051  1667.476759  1772.434168  -264.905712 -1926.996696 -1244.724206
0.057600   910.767543  1933.648393   631.671435 -1412.622256 -1758.322321     5.218338
0.058800  1778.613562  1421.502082  -675.478966 -1971.537504  -881.818132  1319.104311
0.060000  1949.888145   181.697463 -1851.417604 -1621.491989   635.611852  2142.914285
0.061200   993.266454 -1416.545373 -2078.733658  -157.760998  1977.119586  1649.294696
0.062400  -743.988824 -2200.101497  -916.217976  1487.542387  2013.466952    43.207974
0.063600 -1943.987370 -1509.091406   764.604222  2057.590974   813.683654 -1386.654624
0.064800 -1851.953375   -69.839304  1741.238363  1427.171603  -585.101401 -1870.806554
0.066000  -896.684686  1140.764081  1804.677518   293.690836 -1574.363348 -1550.158899
0.067200   350.456088  1855.124094  1128.656729 -1008.662851 -1955.209010  -498.550299
0.068400  1612.084101  1760.333654  -290.710560 -2013.460825 -1243.999663  1098.456253
0.069600  2102.574611   472.880565 -1757.429712 -1789.071760   420.126737  2089.623310
0.070800  1137.813299 -1206.142047 -2016.804313  -327.882419  1718.983890  1614.120987
0.072000  -451.351676 -1908.940894 -1011.620992  1076.836085  1811.388461   361.441173
0.073200 -1484.648900 -1518.089374   258.198038  1707.525676  1105.789791  -823.986166
0.074400 -1770.268180  -588.609530  1323.219001  1656.363665   -31.301961 -1718.372667
0.075600 -1326.216873   719.764211  1931.484467   759.827102 -1392.029234 -1833.987250
0.076800     5.500898  1862.740813  1410.733915  -812.738887 -2025.246082  -710.839039
0.078000  1496.437740  1828.770519  -117.469516 -1893.243298 -1303.662568   877.927922
0.079200  1934.573566   598.138139 -1437.993465 -1681.905785   128.797623  1732.581491
0.080400  1197.659280  -759.092093 -1760.201192  -631.499812  1232.350223  1592.177946
0.081600    38.709123 -1549.124567 -1270.140879   537.841873  1708.503590   822.399562
0.082800 -1074.950908 -1691.170544  -251.395152  1530.494325  1465.382551  -420.303306
0.084000 -1829.940275  -991.973922  1095.559893  1855.755482   308.193172 -1655.971867
0.085200 -1568.539082   486.896349  1940.920199   966.995078 -1215.054684 -1870.484876
0.086400  -192.188826  1701.776129  1455.077489  -576.325470 -1856.771089  -834.491849
0.087600  1180.624132  1699.414529   152.064197 -1530.201032 -1325.711174   456.568352
0.088800  1646.636630   849.252416  -945.499004 -1592.493498  -338.786203  1317.205848
0.090000  1397.898840  -209.563575 -1588.160995 -1062.780955   778.304002  1708.730855
0.091200   554.967349 -1314.772589 -1604.610628   104.529264  1729.925787  1220.489186
0.092400  -834.481188 -1870.975409  -571.945320  1449.212982  1666.696270  -201.294543
0.093600 -1817.286263 -1157.363954   938.513624  1845.179719   452.782109 -1460.960413
0.094800 -1534.839804   264.795680  1697.269051  1032.424814  -868.755736 -1666.025338
0.096000  -431.830974  1287.295977  1425.232142  -143.369698 -1511.885819 -1053.874861
0.097200   661.431486  1576.341603   594.185576 -1109.781243 -1484.025760   -59.667511
0.098400  1456.380496  1225.083724  -514.796964 -1658.054220  -775.763971  1088.300552
0.099600  1643.941468   160.331398 -1556.629651 -1353.737203   545.125729  1784.609395
0.100800   803.488296 -1193.538666 -1705.704663   -83.283237  1638.322913  1307.599288
0.102000  -647.888898 -1770.085075  -686.700819  1216.081972  1586.466456     2.914144
0.103200 -1543.118872 -1170.679501   605.784103  1597.994758   636.619596 -1059.781336
0.104400 -1441.924279   -96.550051  1340.906413  1156.488912  -403.568396 -1472.344700
0.105600  -776.346678   864.625155  1482.293211   311.482128 -1266.939970 -1326.967205
0.106800   250.468695  1557.694571   969.726119  -844.423420 -1648.597192  -399.142502
0.108000  1382.506948  1456.550101  -298.746090 -1693.475028  -973.762179   970.644855
