##TITLE=1D-13C-1-2-5-328-110-"no"-"yes"
##JCAMP-DX=5.01 $$ Magritek Spinsolve SPA1903 2.0.4.4423
##DATA TYPE=NMR FID
##DATA CLASS=NTUPLES
##ORIGIN=SPA1903 at Magritek
##OWNER=Copyright (C) 2025 by Magritek
##LONGDATE=2025/03/17 11:56:30.282
##.OBSERVE FREQUENCY=15.4860999900848
##.OBSERVE NUCLEUS=^13C
##.DELAY=( 20,  2000)
##.ACQUISITION MODE=SIMULTANEOUS
##.FIELD= 1.5
##.AVERAGES= 1
##.DIGITISER RES=16
##.SHIFT REFERENCE=(INTERNAL, Water, 4096, 0)
##$REFERENCE_POINT= 796.529    $$ Referencing label
$$      Distance of the zero axis position (in Hz) from the last data
$$      point (right edge); positive values -> right edge is below 0 Hz
##SPECTROMETER/DATA SYSTEM=Magritek
##SAMPLE DESCRIPTION=solvent=Water
$$ Bruker specific parameters
$$ --------------------------
##$AUNMP=   <proc_1d_nosref>
##$INSTRUM= <Magritek>
##$SI=      8192
##$TD=      8192
##$TDeff=   8192
##$SW=      322.870200
##$BF1=     15.4860999900848
##$SF=      15.4843965190859
##$LB=      0
##$PHC0=    217.6
##$PHC1=    0.0
##$REVERSE= yes
$$ End of Bruker specific parameters
$$ ---------------------------------
##NTUPLES=NMR FID
##VAR_NAME=        TIME,            FID/REAL,            FID/IMAG, PAGE NUMBER
##SYMBOL=             X,                   R,                   I,           N
##VAR_TYPE= INDEPENDENT,           DEPENDENT,           DEPENDENT,        PAGE
##VAR_FORM=        AFFN,                AFFN,                AFFN,        AFFN
##VAR_DIM=         8192,                8192,                8192,           2
##UNITS=        SECONDS,     ARBITRARY UNITS,     ARBITRARY UNITS,            
##FIRST=              0,                   0,                   0,           1
##LAST=    1.638199e+00,   -1.09770241473342,   0.176945074674337,           2
##MIN=                0,   -15857.1711822175,   -14999.3426326657,           1
##MAX=     1.638199e+00,    15211.6295599334,    16418.8257763302,           2
##FACTOR=             1,                   1,                   1,           1
##PAGE=N=1
##DATA TABLE=(X++(R..R)), XYDATA
0.000000     0.000000  6568.558246 -12145.294793 -15295.791907   735.350209 15211.629560
0.001200 10958.119521 -6645.371309 -15857.171182 -5458.911412 11377.555544 13865.362210
0.002400  -486.743367 -13775.271155 -10210.129490  5452.723419 14363.437965  5931.753628
0.003600 -9613.911607 -13431.123656  -960.625423 12589.147057 10891.098790 -3948.198854
0.004800 -14115.357245 -7216.839157  8670.662165 14169.528691  2181.604498 -12703.673773
0.006000 -11956.711793  3620.872610 14785.330234  7716.339763 -8941.687258 -14623.613973
0.007200 -2166.672447 13066.290808 12048.086620 -3989.998733 -14968.643403 -7259.713971
0.008400  9314.178741 14134.379773  1504.110419 -12742.615584 -11141.115884  4067.806199
0.009600 14031.819223  6650.740355 -8696.280392 -13079.134304 -1481.762520 11573.618484
0.010800 10375.793634 -3233.007685 -12740.287418 -6798.049030  7312.829746 12460.570898
0.012000  2455.878421 -10417.041185 -10605.741913  1960.263717 12166.211657  7750.473983
0.013200 -6206.118425 -12853.720994 -3697.956544 10255.344612 11636.048162 -1413.398681
0.014400 -12769.028886 -8416.644271  6392.903505 13478.985614  3818.906250 -10802.887920
0.015600 -11946.443027  1928.800194 13248.711020  7918.467549 -7068.141415 -13084.156086
0.016800 -2948.539972 10673.310485 10953.079610 -2279.960823 -12388.251253 -7021.662460
0.018000  6641.478760 11791.232514  2713.021405 -9325.035794 -10015.586854  1303.214207
0.019200 10967.841894  7299.907722 -5168.568559 -11275.062764 -3790.571822  8202.493144
0.020400 10397.760281    29.393639 -10618.574910 -8446.931362  4278.262584 11956.356587
0.021600  4881.611100 -8354.516599 -11357.041515  -283.692742 11278.238508  8932.571826
0.022800 -4616.573176 -12511.894294 -4772.956041  8936.536515 11430.882299  -315.603270
0.024000 -11502.721574 -8309.956749  5043.094136 11981.777406  4107.279094 -8661.344301
0.025200 -10581.986314   489.952986 10708.225096  7633.754886 -4589.363092 -10924.691456
0.026400 -3994.837424  7556.397904  9866.913395   288.881762 -9586.539092 -7800.184189
0.027600  3444.615015 10427.400239  4767.591416 -6582.151725 -9999.264735 -1362.965680
0.028800  9094.350265  8621.207243 -2551.581957 -10785.193509 -5721.391153  6480.030057
0.030000 10739.130321  1775.070205 -9491.431280 -9173.040096  2619.046899 11343.461934
0.031200  5858.432357 -7035.754466 -11009.055220 -1217.962826  9898.400470  8647.118633
0.032400 -3203.147288 -10978.069820 -5086.522604  7034.340879 10181.258542   703.631986
0.033600 -9249.909709 -7630.838686  3007.117405  9678.223019  4652.905237 -5842.080604
0.034800 -9169.600098 -1400.827649  7925.873633  7576.264384 -1795.778341 -8911.381017
0.036000 -5403.705950  4632.745633  9276.329685  2661.954398 -7444.612095 -8553.138168
0.037200   954.218255  9430.630738  6313.284245 -4701.783957 -10054.241368 -2942.279576
0.038400  8002.028678  9029.770115 -1323.635913 -10037.011992 -6107.230498  5416.015795
0.039600 10037.488812  2146.416660 -8238.190097 -8263.754277  1871.784879  9483.955919
0.040800  5278.686638 -5285.723539 -9084.181581 -1717.157721  7448.038879  7343.300937
0.042000 -1520.867305 -8309.257690 -5036.588200  4215.591900  8328.245034  2354.416850
0.043200 -6426.232463 -7356.614304   583.224623  7751.582044  5602.049077 -3323.886784
0.044400 -8392.116478 -3283.320562  6046.121807  8041.272597    33.397028 -8093.562323
0.045600 -6244.893552  3318.225929  8899.005925  3546.631330 -6352.781330 -8465.512890
0.046800   104.800272  8605.484263  6242.181968 -3881.895775 -9023.280838 -2983.291496
0.048000  6642.553322  7994.287456  -592.810068 -8375.078775 -5599.615551  4020.466823
0.049200  8350.133202  2377.979311 -6159.932702 -7026.936915   495.803653  7283.377727
0.050400  5204.351464 -3119.086685 -7511.876123 -2790.076286  5112.883732  6805.447329
0.051600   451.761531 -6486.097323 -5772.468093  1998.954756  7561.011443  3918.860463
0.052800 -4686.126319 -7653.414041 -1201.317311  6881.111338  6618.779554 -1940.890813
0.054000 -8313.985625 -4321.090835  5242.286720  8275.908221   866.040195 -7608.906087
0.055200 -6485.975878  2698.465141  8386.630849  3593.490108 -5565.564770 -7669.817938
0.056400  -269.112427  7257.346991  5664.146683 -2755.070526 -7500.249637 -3054.898525
0.057600  4840.169278  6717.385706   578.913494 -6125.919497 -5438.008879  1747.122683
0.058800  6776.890109  3627.496102 -3844.298480 -6687.793681 -1544.546316  5545.967787
0.060000  6088.572929  -843.711976 -6973.015021 -4560.293464  3615.771653  7397.469677
0.061200  2033.464132 -5893.778295 -6642.865616   842.867354  7455.385926  4811.486156
0.062400 -3992.309441 -7818.532688 -1777.589753  6398.312466  6482.388219 -1404.552256
0.063600 -7435.086422 -4258.695792  4174.636689  7362.683571  1339.083143 -6180.831214
0.064800 -5826.229217  1569.589066  6740.648604  3677.456908 -3675.742591 -6479.831929
0.066000 -1439.616081  5252.387233  5442.966459  -902.008626 -5962.158350 -3857.522182
0.067200  2734.410853  6096.944384  2233.473377 -4444.024972 -5869.158857   -69.712605
0.068400  5948.572813  4717.455001 -2344.659331 -6658.045814 -2838.567244  4638.974902
0.069600  6537.085873   211.565610 -6555.546005 -5106.269823  2835.351506  7203.153751
0.070800  2497.581031 -5295.198857 -6392.332734   505.912529  6676.978759  4418.460681
0.072000 -3274.957840 -6683.755056 -1749.493701  5109.825268  5454.641159  -766.353742
0.073200 -5768.696393 -3708.256623  2660.752321  5679.738800  1881.286281 -4074.031501
0.074400 -5058.260950   -10.895245  4968.808712  4013.542662 -1688.761457 -5454.285461
0.075600 -2754.034108  3419.310713  5619.452718   862.026925 -5141.816375 -4844.471343
0.076800  1506.392001  6074.846259  3162.963828 -3761.791284 -6149.590133  -811.015485
0.078000  5694.650335  5020.835731 -2014.601502 -6421.646473 -2750.388496  4233.006758
0.079200  5881.467634   263.081856 -5655.109379 -4485.697665  2263.115294  6000.114198
0.080400  2211.229699 -4070.402404 -5164.342490   -81.427446  4914.568478  3952.741120
0.081600 -1737.685604 -5245.256046 -2329.773491  3313.745798  4824.890574   612.907888
0.082800 -4213.188256 -4069.120591   904.683588  4918.714446  3043.626780 -2641.717977
0.084000 -5202.099309 -1404.656876  4181.537793  4747.656287  -515.276138 -5332.683445
0.085200 -3654.310004  2732.666781  5857.640258  1594.320695 -4754.600623 -5133.013051
0.086400   948.128641  5826.682077  3400.151356 -3268.480060 -5808.435716 -1042.292626
0.087600  4961.054597  4633.428931 -1423.070558 -5488.047539 -2673.975635  3224.107557
0.088800  4956.362999   711.729842 -4173.072927 -3926.740720   943.677235  4540.303421
0.090000  2667.974862 -2287.906735 -4444.852825 -1370.936227  3285.020341  4115.387529
0.091200    70.662277 -4226.270859 -3525.334832  1590.536036  4936.486084  2225.033513
0.092400 -3340.167932 -4888.146100  -372.487733  4768.767590  4075.713803 -1848.421991
0.093600 -5588.604272 -2223.323095  3990.043663  5081.354330  -217.537095 -5124.608484
0.094800 -3614.266475  2334.193020  5326.905395  1640.720327 -4019.119221 -4502.570865
0.096000   586.091333  4681.917310  2942.652336 -2167.146336 -4492.249250 -1440.075639
0.097200  3264.354799  3955.920073  -136.031885 -3944.592187 -2942.946689  1460.407566
0.098400  4046.280528  1890.679520 -2540.422133 -4050.072894  -641.175028  3671.205645
0.099600  3530.946252  -964.156331 -4330.597840 -2452.172610  2486.359769  4520.722765
0.100800   964.140624 -3978.297365 -4019.465889  1077.064420  4870.282394  2511.538286
0.102000 -3008.396524 -4739.539874  -534.204306  4336.585576  3745.334232 -1561.985858
0.103200 -4838.215011 -1976.442210  3268.324103  4264.001896   -23.003951 -4074.288387
0.104400 -2995.485132  1617.288781  4070.591244  1562.180974 -2693.080657 -3563.531770
0.105600  -184.408142  3263.754112  2756.950264  -922.471288 -3441.566933 -1954.616624
0.106800  1848.826135  3572.759476  1031.559548 -2908.742105 -3405.291734   317.575361
0.108000  3763.679543  2637.145826 -1824.450351 -4197.034378 -1366.342650  3363.176333
