##TITLE=1D-13C-1-2-5-328-110-"no"-"yes"
##JCAMP-DX=5.01 $$ Magritek Spinsolve SPA1903 2.0.4.4423
##DATA TYPE=NMR FID
##DATA CLASS=NTUPLES
##ORIGIN=SPA1903 at Magritek
##OWNER=Copyright (C) 2025 by Magritek
##LONGDATE=2025/03/17 12:00:11.789
##.OBSERVE FREQUENCY=15.4860999900848
##.OBSERVE NUCLEUS=^13C
##.DELAY=( 20,  2000)
##.ACQUISITION MODE=SIMULTANEOUS
##.FIELD= 1.5
##.AVERAGES= 1
##.DIGITISER RES=16
##.SHIFT REFERENCE=(INTERNAL, Water, 4096, 0)
##$REFERENCE_POINT= 796.529    $$ Referencing label
$$      Distance of the zero axis position (in Hz) from the last data
$$      point (right edge); positive values -> right edge is below 0 Hz
##SPECTROMETER/DATA SYSTEM=Magritek
##SAMPLE DESCRIPTION=solvent=Water
$$ Bruker specific parameters
$$ --------------------------
##$AUNMP=   <proc_1d_nosref>
##$INSTRUM= <Magritek>
##$SI=      8192
##$TD=      8192
##$TDeff=   8192
##$SW=      322.870200
##$BF1=     15.4860999900848
##$SF=      15.4843965190859
##$LB=      0
##$PHC0=    216.9
##$PHC1=    0.0
##$REVERSE= yes
$$ End of Bruker specific parameters
$$ ---------------------------------
##NTUPLES=NMR FID
##VAR_NAME=        TIME,            FID/REAL,            FID/IMAG, PAGE NUMBER
##SYMBOL=             X,                   R,                   I,           N
##VAR_TYPE= INDEPENDENT,           DEPENDENT,           DEPENDENT,        PAGE
##VAR_FORM=        AFFN,                AFFN,                AFFN,        AFFN
##VAR_DIM=         8192,                8192,                8192,           2
##UNITS=        SECONDS,     ARBITRARY UNITS,     ARBITRARY UNITS,            
##FIRST=              0,                   0,                   0,           1
##LAST=    1.638199e+00,  -0.612029130576549,   0.328536171403536,           2
##MIN=                0,   -2455.76550661109,   -2412.43712239995,           1
##MAX=     1.638199e+00,    2385.78779700122,    2561.49811130125,           2
##FACTOR=             1,                   1,                   1,           1
##PAGE=N=1
##DATA TABLE=(X++(R..R)), XYDATA
0.000000     0.000000  1026.342512 -1869.025324 -2388.127860   107.079715  2380.373767
0.001200  1698.608436 -1056.130733 -2455.765507  -828.896909  1758.571080  2146.592525
0.002400   -67.321875 -2137.311253 -1588.506534   842.722022  2225.539036   924.801887
0.003600 -1470.945392 -2088.749842  -193.386023  1938.415513  1747.742870  -567.488848
0.004800 -2221.821310 -1183.040415  1322.026514  2257.705930   417.951855 -1978.313910
0.006000 -1971.369545   489.437051  2385.787797  1328.077772 -1400.054162 -2412.082876
0.007200  -414.797483  2105.974309  2013.950953  -589.866103 -2450.231691 -1245.745410
0.008400  1484.556531  2353.409112   305.928857 -2082.321654 -1870.753072   621.788543
0.009600  2303.235149  1133.676040 -1379.933812 -2166.930389  -319.017020  1866.803750
0.010800  1755.722284  -461.126915 -2087.848988 -1194.684542  1124.248354  2081.801785
0.012000   528.003101 -1661.779913 -1855.730178   195.654735  2033.519883  1418.959360
0.013200  -949.278980 -2204.934030  -762.944644  1662.765215  2064.830326   -95.508884
0.014400 -2178.231828 -1572.249885  1015.253727  2364.630073   772.764767 -1802.135257
0.015600 -2128.299356   205.459145  2271.296817  1485.998929 -1130.940514 -2306.762954
0.016800  -624.716495  1792.825898  1957.690721  -272.889602 -2115.461653 -1342.259900
0.018000  1021.788406  2086.128100   617.929368 -1547.618478 -1823.185627    82.828364
0.019200  1871.636453  1414.887645  -744.363085 -2007.584126  -853.250692  1340.426567
0.020400  1939.852468   183.384851 -1844.782445 -1649.932407   602.650834  2155.070143
0.021600  1055.604534 -1382.754033 -2150.372268  -238.697036  1997.944715  1763.057381
0.022800  -677.709228 -2282.293789 -1035.549440  1498.653393  2157.352848   128.349682
0.024000 -2040.362329 -1651.675037   762.811009  2198.227240   912.720746 -1461.858732
0.025200 -1998.351159   -95.659372  1875.443858  1536.866016  -653.479742 -2003.780944
0.026400  -924.084048  1247.909745  1891.911505   264.479560 -1671.285483 -1581.945616
0.027600   415.829370  1920.544980  1119.895295 -1056.862449 -1971.441617  -487.819236
0.028800  1618.443183  1780.570022  -257.817897 -2024.980676 -1313.805558  1054.395284
0.030000  2141.225260   567.689490 -1735.090949 -1905.847972   309.792142  2154.159466
0.031200  1305.516074 -1170.714493 -2174.256320  -462.558513  1801.580414  1804.057746
0.032400  -417.669702 -2075.775442 -1153.933957  1157.368016  1997.379775   386.312705
0.033600 -1638.619586 -1641.308745   325.962921  1848.759641  1126.370640  -923.686003
0.034800 -1842.073864  -550.751480  1401.798995  1674.370792   -68.756228 -1742.927748
0.036000 -1332.281439   716.893883  1929.111219   794.889233 -1351.068108 -1874.347039
0.037200   -71.001603  1866.761011  1509.858311  -742.170988 -2103.506188  -843.676460
0.038400  1486.503633  1967.463903   -17.228842 -1973.792796 -1457.304744   864.436839
0.039600  2086.180278   709.186613 -1528.017846 -1834.174405   105.160357  1860.488711
0.040800  1307.525742  -820.806005 -1901.584314  -661.821010  1340.772426  1682.111210
0.042000    -1.653947 -1649.398701 -1301.261565   600.595561  1776.411637   809.032556
0.043200 -1139.758920 -1719.690623  -221.592868  1564.378200  1467.414385  -429.851204
0.044400 -1836.318534 -1008.720720  1091.401455  1877.975223   337.712905 -1646.263632
0.045600 -1610.977353   437.127966  1969.748406  1052.379873 -1186.923487 -1956.625488
0.046800  -286.074768  1740.656859  1583.192142  -544.537334 -1971.531127  -942.615033
0.048000  1225.813363  1846.737375   185.735982 -1662.680781 -1442.136806   524.406393
0.049200  1801.239978   874.783883 -1075.504338 -1682.412389  -264.727029  1447.154665
0.050400  1407.365754  -311.376450 -1651.474138 -1003.398117   850.829947  1690.776180
0.051600   495.910719 -1332.252530 -1576.363106   112.288613  1709.974869  1227.577292
0.052800  -801.607838 -1877.411871  -623.979746  1431.857038  1739.628810  -135.298104
0.054000 -1863.455900 -1262.841945   919.173230  1955.043118   543.517856 -1529.809165
0.055200 -1680.229770   256.607147  1838.423131  1127.102347  -949.213174 -1816.804051
0.056400  -446.875270  1418.609831  1518.588006  -210.251884 -1641.548233 -1070.112369
0.057600   766.827603  1658.332012   558.078003 -1201.131753 -1511.089804   -11.946177
0.058800  1514.206705  1221.359325  -561.608604 -1690.454975  -770.396653  1112.343563
0.060000  1665.745008   169.248087 -1575.364347 -1397.088603   532.116041  1839.045732
0.061200   865.646018 -1201.490334 -1781.465260  -140.825871  1689.770073  1423.095711
0.062400  -616.769245 -1881.046909  -793.950666  1270.752937  1735.593655    56.559436
0.063600 -1657.332061 -1301.713943   638.313324  1763.534336   710.468876 -1173.385274
0.064800 -1592.477740   -77.551943  1490.293155  1232.084494  -492.646967 -1594.707600
0.066000  -778.849335   965.269054  1546.125107   268.660726 -1337.139725 -1338.617749
0.067200   281.634230  1584.878974   976.976715  -851.904698 -1678.335137  -439.509332
0.068400  1380.223149  1522.800136  -228.429358 -1727.213005 -1091.421446   927.468274
0.069600  1805.541537   422.776552 -1497.708402 -1543.012778   341.455888  1782.586540
0.070800   995.121352 -1020.387321 -1735.344760  -295.225844  1464.416129  1391.781598
0.072000  -373.005460 -1639.387442  -884.097911   906.617277  1556.272121   329.144141
0.073200 -1260.808159 -1312.965201   200.614606  1456.285875   965.366028  -684.582714
0.074400 -1522.775346  -525.623484  1131.717057  1433.988445    -9.040194 -1469.292962
0.075600 -1153.433409   604.640455  1660.440122   665.715792 -1179.775570 -1583.385540
0.076800    -9.939106  1595.583849  1225.276708  -682.266635 -1745.966239  -634.287507
0.078000  1264.324856  1584.623826   -77.824048 -1622.843936 -1133.386613   741.375416
0.079200  1665.125253   535.449763 -1218.680712 -1453.255427    88.101002  1482.702064
0.080400  1047.134877  -634.198529 -1514.064328  -563.087156  1043.801663  1379.616991
0.081600    61.912020 -1324.979688 -1110.300482   449.506278  1472.910296   725.243826
0.082800  -908.809505 -1458.312322  -234.984072  1306.737468  1274.103623  -340.656810
0.084000 -1567.595732  -875.240696   928.271300  1608.925014   286.132978 -1415.377790
0.085200 -1362.702859   404.003188  1667.926655   850.936072 -1025.432283 -1619.571021
0.086400  -187.871611  1456.839806  1267.523061  -477.870988 -1594.884164  -740.011376
0.087600   996.379196  1469.072663   150.444364 -1308.210556 -1152.456888   375.924873
0.088800  1417.603845   752.126645  -790.976414 -1379.794422  -316.542653  1124.326500
0.090000  1217.631335  -156.058692 -1366.640822  -934.219895   651.917433  1476.956169
0.091200   501.593897 -1122.543741 -1398.136729    68.268715  1486.433956  1066.173312
0.092400  -696.297463 -1611.434530  -518.134661  1233.862733  1454.199100  -151.486937
0.093600 -1561.070397 -1012.815866   787.020620  1589.468848   415.776791 -1245.303893
0.094800 -1336.413041   201.277879  1454.285793   910.258884  -725.242468 -1443.999962
0.096000  -397.792147  1096.372566  1241.433312   -98.321291 -1295.195507  -928.054375
0.097200   545.193469  1361.296144   538.335579  -940.156603 -1288.661756   -77.137360
0.098400  1247.828582  1076.330870  -420.813673 -1429.719610  -690.562667   925.573224
0.099600  1424.248248   156.202456 -1337.018589 -1190.029455   445.905589  1538.614361
0.100800   711.379387 -1017.940875 -1485.318439  -101.279808  1406.157599  1148.578715
0.102000  -536.999780 -1528.387407  -616.032935  1034.810033  1379.091965    28.172252
0.103200 -1320.675614 -1025.923824   504.484232  1383.011677   575.802309  -899.250565
0.104400 -1257.119394  -107.732347  1143.563374  1017.710975  -325.016433 -1275.336026
0.105600  -697.430476   722.514547  1289.334514   295.732540 -1080.937978 -1165.615777
0.106800   186.177100  1347.049461   859.720997  -715.552235 -1433.372354  -372.579899
0.108000  1182.413646  1279.035036  -230.692594 -1462.566963  -868.990391   817.066867
