##TITLE=1D-13C-1-2-5-328-110-"no"-"yes"
##JCAMP-DX=5.01 $$ Magritek Spinsolve SPA1903 2.0.4.4423
##DATA TYPE=NMR FID
##DATA CLASS=NTUPLES
##ORIGIN=SPA1903 at Magritek
##OWNER=Copyright (C) 2025 by Magritek
##LONGDATE=2025/03/17 11:57:54.912
##.OBSERVE FREQUENCY=15.4860999900848
##.OBSERVE NUCLEUS=^13C
##.DELAY=( 20,  2000)
##.ACQUISITION MODE=SIMULTANEOUS
##.FIELD= 1.5
##.AVERAGES= 1
##.DIGITISER RES=16
##.SHIFT REFERENCE=(INTERNAL, Water, 4096, 0)
##$REFERENCE_POINT= 796.529    $$ Referencing label
$$      Distance of the zero axis position (in Hz) from the last data
$$      point (right edge); positive values -> right edge is below 0 Hz
##SPECTROMETER/DATA SYSTEM=Magritek
##SAMPLE DESCRIPTION=solvent=Water
$$ Bruker specific parameters
$$ --------------------------
##$AUNMP=   <proc_1d_nosref>
##$INSTRUM= <Magritek>
##$SI=      8192
##$TD=      8192
##$TDeff=   8192
##$SW=      322.870200
##$BF1=     15.4860999900848
##$SF=      15.4843965190859
##$LB=      0
##$PHC0=    217.1
##$PHC1=    0.0
##$REVERSE= yes
$$ End of Bruker specific parameters
$$ ---------------------------------
##NTUPLES=NMR FID
##VAR_NAME=        TIME,            FID/REAL,            FID/IMAG, PAGE NUMBER
##SYMBOL=             X,                   R,                   I,           N
##VAR_TYPE= INDEPENDENT,           DEPENDENT,           DEPENDENT,        PAGE
##VAR_FORM=        AFFN,                AFFN,                AFFN,        AFFN
##VAR_DIM=         8192,                8192,                8192,           2
##UNITS=        SECONDS,     ARBITRARY UNITS,     ARBITRARY UNITS,            
##FIRST=              0,                   0,                   0,           1
##LAST=    1.638199e+00,    0.59679995083405,  -0.648356213592071,           2
##MIN=                0,   -7779.52950357439,   -7438.81810711355,           1
##MAX=     1.638199e+00,    7511.26944464074,    8090.76266232312,           2
##FACTOR=             1,                   1,                   1,           1
##PAGE=N=1
##DATA TABLE=(X++(R..R)), XYDATA
0.000000     0.000000  3247.697215 -5921.569705 -7545.064957   333.537905  7511.269445
0.001200  5398.504956 -3299.692769 -7779.529504 -2640.652733  5581.416201  6795.499352
0.002400  -228.417209 -6762.270790 -5031.131794  2666.435764  7050.673461  2928.097730
0.003600 -4687.827488 -6608.607480  -554.535607  6157.377885  5456.721415 -1848.258677
0.004800 -6991.794365 -3680.078004  4215.192357  7072.906110  1221.381255 -6257.720206
0.006000 -6082.537193  1651.892461  7434.922639  4036.525369 -4426.159709 -7450.822513
0.007200 -1206.819899  6580.281880  6177.677568 -1921.367909 -7594.183602 -3794.764679
0.008400  4661.999278  7244.665409   854.049236 -6474.219391 -5727.029301  2005.350990
0.009600  7139.217877  3458.414788 -4345.757416 -6679.253032  -867.032090  5834.861386
0.010800  5358.014033 -1527.838738 -6468.522184 -3585.339852  3584.993781  6389.953771
0.012000  1462.120932 -5217.590876 -5592.413498   791.368056  6264.656017  4195.520248
0.013200 -3041.760357 -6699.084133 -2139.205588  5185.348711  6200.105272  -491.200636
0.014400 -6656.526429 -4618.782900  3200.042237  7132.374075  2189.818082 -5551.910448
0.015600 -6371.725477   801.694786  6927.296986  4358.396501 -3558.542145 -6940.038773
0.016800 -1723.493107  5517.982820  5855.104279  -994.232998 -6449.392197 -3886.947619
0.018000  3281.983411  6266.707480  1668.757275 -4797.818386 -5407.727978   456.002267
0.019200  5715.882423  4067.426296 -2469.035828 -6009.600902 -2321.536406  4182.275806
0.020400  5705.121085   298.865228 -5602.391871 -4744.844083  2015.760935  6430.289630
0.021600  2928.608758 -4286.339100 -6272.051243  -461.654171  6016.219736  5051.859215
0.022800 -2246.405263 -6791.194300 -2850.081737  4646.619714  6318.310969   131.634661
0.024000 -6150.452669 -4737.829914  2490.823519  6525.789943  2483.848146 -4514.817999
0.025200 -5844.501595   -29.737567  5691.313250  4372.715075 -2196.718387 -5953.438336
0.026400 -2476.517477  3899.518940  5496.909302   477.220811 -5079.203706 -4490.818623
0.027600  1527.537519  5693.861883  2974.335841 -3355.209458 -5661.890361 -1112.073434
0.028800  4885.760902  5006.607029 -1064.311652 -5957.375254 -3525.072314  3334.434762
0.030000  6141.092038  1347.615239 -5187.713491 -5348.133497  1183.425907  6312.388624
0.031200  3551.606936 -3675.109769 -6265.091280 -1027.473940  5410.697385  5063.281716
0.032400 -1513.323240 -6112.226502 -3111.447810  3657.223174  5773.374943   778.697949
0.033600 -4986.849594 -4542.558063  1320.556539  5424.260301  2954.785186 -2992.523699
0.034800 -5274.604145 -1209.189585  4263.645465  4583.567319  -594.103627 -5062.821609
0.036000 -3467.457320  2358.357579  5445.563293  1916.381959 -4082.872766 -5165.307061
0.037200   157.848534  5397.963887  4001.188255 -2423.481870 -5930.870247 -2057.127673
0.038400  4451.027207  5430.593551  -404.327829 -5735.023546 -3871.733119  2803.257395
0.039600  5907.645533  1641.988862 -4565.767867 -5022.300151   702.157012  5428.362602
0.040800  3407.244432 -2700.200813 -5363.875827 -1457.204910  4087.415472  4562.759431
0.042000  -432.688402 -4793.751741 -3339.646873  2097.434143  4971.574929  1856.163934
0.043200 -3494.693869 -4624.529838  -155.640104  4519.863853  3753.804398 -1592.908243
0.044400 -5092.178511 -2404.430587  3326.513777  5049.508320   510.705633 -4745.412534
0.045600 -4161.317416  1609.232941  5442.548439  2543.825646 -3572.631830 -5289.829333
0.046800  -378.367614  5029.857723  4123.153129 -1919.069496 -5494.797611 -2226.479760
0.048000  3725.547712  4993.897778    91.828851 -4844.139597 -3721.210311  1929.744837
0.049200  5041.907162  1964.989805 -3359.994652 -4500.395909  -234.630353  4218.563538
0.050400  3553.886274 -1362.183375 -4586.594758 -2281.564413  2735.584783  4467.482601
0.051600   851.912920 -3843.370907 -3971.705766   762.392516  4695.976455  2915.171434
0.052800 -2541.307900 -4965.804533 -1258.400981  4106.019433  4447.538445  -790.309078
0.054000 -5136.437220 -3080.887715  2876.022263  5254.480766  1036.166338 -4459.877678
0.055200 -4334.552583  1174.738428  5136.299436  2677.210610 -3026.302823 -4877.537260
0.056400  -717.929580  4189.566384  3861.190978 -1123.423522 -4601.425874 -2457.863269
0.057600  2554.775656  4395.334152   963.419370 -3560.932113 -3788.437824   521.437159
0.058800  4213.120254  2835.819790 -1975.047217 -4434.991042 -1541.439887  3288.144177
0.060000  4203.489498   -38.823721 -4350.477957 -3356.677575  1860.608947  4860.098736
0.061200  1831.162585 -3518.925160 -4543.580123    83.231172  4660.163477  3450.510712
0.062400 -2107.937350 -5039.422881 -1655.350664  3759.172830  4431.307876  -376.100515
0.063600 -4631.151732 -3118.944448  2203.428029  4730.639844  1399.219963 -3561.743732
0.064800 -4029.593372   386.107528  4181.773807  2854.800159 -1846.203751 -4249.290089
0.066000 -1533.312994  2986.043456  3857.995561    88.493343 -3748.677322 -3087.844724
0.067200  1275.666415  4145.627525  2042.817778 -2611.155488 -4184.408916  -615.880094
0.068400  3802.421209  3598.199487 -1088.960145 -4524.140654 -2377.984474  2791.799203
0.069600  4563.243220   613.101094 -4170.698902 -3735.786230  1402.254192  4758.311495
0.070800  2140.369195 -3112.172979 -4423.790958  -229.112332  4157.630517  3313.667478
0.072000 -1571.505776 -4382.970676 -1774.741988  2887.030539  3903.657848   201.300829
0.073200 -3611.569332 -3006.634405  1151.866868  3851.962978  1933.340603 -2271.436548
0.074400 -3743.616225  -722.909418  3179.940143  3282.274564  -591.300552 -3822.756508
0.075600 -2459.092521  1974.108375  4101.301420  1169.400921 -3311.920085 -3746.353129
0.076800   507.275631  4188.979196  2679.335635 -2199.182858 -4381.996540 -1092.892596
0.078000  3601.937992  3782.847071  -784.706344 -4319.592018 -2430.892357  2416.410276
0.079200  4196.296418   789.775032 -3525.902395 -3427.323482   867.979865  3991.146377
0.080400  2159.843825 -2218.182826 -3776.587802  -777.950448  3065.436467  3174.059270
0.081600  -515.241522 -3546.336876 -2275.217826  1714.704988  3615.956938  1183.094754
0.082800 -2662.125168 -3339.831699    14.481844  3436.368081  2728.150330 -1370.558015
0.084000 -3878.291115 -1628.273661  2691.442760  3757.269307   167.608202 -3723.653238
0.085200 -3024.823720  1504.688480  4211.841889  1639.961949 -3006.968737 -3886.449347
0.086400   100.468477  3928.944633  2820.762059 -1773.634267 -4087.148589 -1302.435257
0.087600  3009.769524  3508.331398  -289.301367 -3601.918766 -2446.569060  1598.582859
0.088800  3582.395182  1236.262173 -2499.440250 -3176.757478   -83.819422  3061.920946
0.090000  2545.273863 -1008.901812 -3372.869947 -1704.749343  2038.936251  3389.865350
0.091200   646.089889 -2984.285543 -3045.683862   695.192155  3696.840556  2147.991593
0.092400 -2141.734717 -3826.795655  -741.769094  3327.236936  3278.950499  -901.930235
0.093600 -3987.921082 -2058.024964  2455.617656  3842.473187   425.031932 -3445.163035
0.094800 -2980.234647  1132.061777  3759.449274  1727.409192 -2368.124223 -3455.762603
0.096000  -308.677128  3090.389613  2653.202687  -922.545399 -3292.147564 -1701.320846
0.097200  1891.186322  3183.101521   641.919018 -2651.144794 -2739.782448   450.424503
0.098400  3105.998924  2049.600866 -1519.837322 -3322.601245 -1086.713498  2558.379571
0.099600  3118.489103  -185.056232 -3327.675568 -2390.458512  1552.737323  3635.467220
0.100800  1204.658249 -2791.218447 -3336.369859   326.855313  3594.958386  2347.549226
0.102000 -1831.427822 -3689.529408  -929.498230  2940.406783  3097.837575  -578.337035
0.103200 -3459.146962 -2004.116367  1857.397783  3317.731995   705.688134 -2653.690135
0.104400 -2705.201097   471.891183  2980.337345  1869.235596 -1424.187692 -2961.715830
0.105600  -968.268316  2160.570446  2707.137173    19.503133 -2717.432453 -2219.670672
0.106800   984.945828  3084.114381  1451.334573 -2052.431079 -3118.268316  -301.063981
0.108000  2973.722953  2588.512704 -1063.110172 -3454.033441 -1538.007789  2353.512443
