##TITLE=1D-13C-1-2-5-328-110-"no"-"yes"
##JCAMP-DX=5.01 $$ Magritek Spinsolve SPA1903 2.0.4.4423
##DATA TYPE=NMR FID
##DATA CLASS=NTUPLES
##ORIGIN=SPA1903 at Magritek
##OWNER=Copyright (C) 2025 by Magritek
##LONGDATE=2025/03/17 11:59:19.201
##.OBSERVE FREQUENCY=15.4860999900848
##.OBSERVE NUCLEUS=^13C
##.DELAY=( 20,  2000)
##.ACQUISITION MODE=SIMULTANEOUS
##.FIELD= 1.5
##.AVERAGES= 1
##.DIGITISER RES=16
##.SHIFT REFERENCE=(INTERNAL, Water, 4096, 0)
##$REFERENCE_POINT= 796.529    $$ Referencing label
$$      Distance of the zero axis position (in Hz) from the last data
$$      point (right edge); positive values -> right edge is below 0 Hz
##SPECTROMETER/DATA SYSTEM=Magritek
##SAMPLE DESCRIPTION=solvent=Water
$$ Bruker specific parameters
$$ --------------------------
##$AUNMP=   <proc_1d_nosref>
##$INSTRUM= <Magritek>
##$SI=      8192
##$TD=      8192
##$TDeff=   8192
##$SW=      322.870200
##$BF1=     15.4860999900848
##$SF=      15.4843965190859
##$LB=      0
##$PHC0=    217.0
##$PHC1=    0.0
##$REVERSE= yes
$$ End of Bruker specific parameters
$$ ---------------------------------
##NTUPLES=NMR FID
##VAR_NAME=        TIME,            FID/REAL,            FID/IMAG, PAGE NUMBER
##SYMBOL=             X,                   R,                   I,           N
##VAR_TYPE= INDEPENDENT,           DEPENDENT,           DEPENDENT,        PAGE
##VAR_FORM=        AFFN,                AFFN,                AFFN,        AFFN
##VAR_DIM=         8192,                8192,                8192,           2
##UNITS=        SECONDS,     ARBITRARY UNITS,     ARBITRARY UNITS,            
##FIRST=              0,                   0,                   0,           1
##LAST=    1.638199e+00,  -0.265198821280014,   0.586036081408301,           2
##MIN=                0,    -3788.3262810375,    -3701.6418314826,           1
##MAX=     1.638199e+00,    3673.16004881125,    3952.87386880473,           2
##FACTOR=             1,                   1,                   1,           1
##PAGE=N=1
##DATA TABLE=(X++(R..R)), XYDATA
0.000000     0.000000  1586.690819 -2887.681638 -3684.247193   170.968638  3671.733627
0.001200  2627.545120 -1625.592363 -3788.326281 -1277.503324  2721.777139  3309.777422
0.002400  -106.407585 -3297.518447 -2461.561450  1302.634105  3439.058752  1434.464247
0.003600 -2272.413522 -3232.514370  -299.225390  2999.706372  2697.985382  -879.066820
0.004800 -3432.422576 -1827.583396  2047.917715  3493.825013   639.638361 -3065.796875
0.006000 -3024.819949   777.687089  3673.160049  2028.970425 -2173.071005 -3706.458000
0.007200  -627.524581  3248.857402  3078.393783  -919.993906 -3760.551014 -1909.558952
0.008400  2292.073922  3604.009055   449.408273 -3204.706861 -2858.537629   974.700785
0.009600  3535.368188  1732.661643 -2126.773916 -3320.213080  -474.541970  2875.115113
0.010800  2693.088350  -714.609190 -3205.045060 -1819.915326  1736.385695  3189.344473
0.012000   788.527457 -2570.811510 -2831.218397   328.963566  3123.174036  2156.186771
0.013200 -1473.310336 -3371.952246 -1136.740064  2568.501182  3152.313126  -184.521413
0.014400 -3346.734791 -2379.398806  1572.283977  3609.106849  1150.714169 -2769.938123
0.015600 -3240.626527   346.425972  3480.454695  2250.747130 -1749.370547 -3511.767535
0.016800  -923.078497  2745.285427  2973.034990  -438.240339 -3223.820035 -2017.332629
0.018000  1587.811943  3180.036728   916.031614 -2380.234068 -2771.668485   151.858053
0.019200  2865.080618  2123.295269 -1169.348505 -3057.891572 -1270.080592  2072.559170
0.020400  2944.297425   242.575073 -2823.322028 -2484.754158   942.844946  3279.364987
0.021600  1576.772212 -2129.951200 -3242.766569  -329.139854  3042.300747  2647.556163
0.022800 -1067.784599 -3475.223602 -1539.391744  2307.891855  3266.773531   156.625818
0.024000 -3113.318424 -2486.686289  1191.430232  3338.974320  1353.341510 -2246.125672
0.025200 -3023.689799  -110.381276  2859.952167  2310.005606 -1018.295040 -3043.396344
0.026400 -1367.134339  1920.496457  2854.925331   359.677480 -2558.094334 -2383.969232
0.027600   668.943762  2926.250916  1653.419319 -1637.542585 -2975.082404  -700.776974
0.028800  2477.513402  2670.894970  -438.601533 -3070.483195 -1935.588612  1636.539082
0.030000  3220.740212   805.138023 -2651.968668 -2838.494238   525.815348  3260.207296
0.031200  1931.075775 -1811.987553 -3270.498609  -641.266771  2751.011128  2692.905302
0.032400  -684.770401 -3149.571003 -1697.446315  1798.227633  3012.545184   535.788440
0.033600 -2510.604035 -2438.105306   556.823240  2800.867594  1650.430552 -1445.004625
0.034800 -2776.721362  -777.255745  2150.641596  2487.232787  -166.035901 -2634.634275
0.036000 -1944.907206  1125.880829  2889.183013  1140.909358 -2074.918156 -2792.374534
0.037200   -43.280351  2819.401465  2214.612132 -1174.347393 -3151.094989 -1203.986632
0.038400  2276.259790  2922.374422   -88.854805 -2985.513703 -2140.287390  1361.343758
0.039600  3128.293670   998.099687 -2322.241010 -2720.815836   222.423201  2820.136089
0.040800  1903.385820 -1298.046032 -2844.119674  -920.828153  2057.391581  2489.665733
0.042000   -72.415444 -2497.554370 -1896.167963   969.246598  2658.116020  1143.214380
0.043200 -1757.030404 -2548.405879  -260.584860  2369.260343  2138.759005  -716.057316
0.044400 -2743.554657 -1434.398115  1680.923603  2775.201558   434.959724 -2496.434455
0.045600 -2358.029804   725.096207  2941.559842  1501.691478 -1826.944062 -2895.092661
0.046800  -350.954610  2636.674315  2315.668131  -883.258429 -2943.153152 -1337.420792
0.048000  1886.751576  2732.838646   203.636685 -2519.201736 -2106.051175   861.018209
0.049200  2696.967289  1224.209221 -1667.937758 -2485.550377  -317.444465  2194.724988
0.050400  2049.450247  -550.655257 -2469.719253 -1421.472413  1331.704746  2496.166715
0.051600   656.658532 -2014.629473 -2282.781680   249.036883  2549.358711  1747.462877
0.052800 -1247.976127 -2764.890001  -853.224137  2172.150711  2535.615028  -274.216079
0.054000 -2772.444753 -1814.619676  1429.435095  2892.023933   728.201298 -2331.172040
0.055200 -2451.355318   466.014557  2756.083868  1606.930186 -1487.730430 -2682.668332
0.056400  -575.185805  2161.839167  2205.081210  -402.389225 -2458.005005 -1516.501879
0.057600  1220.066111  2441.050285   735.790692 -1824.189534 -2190.127764    78.562464
0.058800  2271.579605  1735.926984  -916.538468 -2489.454084 -1047.788366  1710.624655
0.060000  2428.528775   163.447549 -2360.576491 -2000.972596   865.289801  2711.356848
0.061200  1193.598641 -1832.386716 -2600.584443  -128.598952  2528.498682  2039.592398
0.062400 -1001.008501 -2783.907244 -1088.363760  1943.475622  2528.543534   -18.790894
0.063600 -2494.663826 -1860.766155  1030.604657  2608.270995   971.351277 -1809.760038
0.064800 -2315.356771   -12.980001  2240.749497  1751.658931  -816.570447 -2362.968220
0.066000 -1059.265803  1502.492517  2241.437209   288.718949 -2017.119240 -1896.922188
0.067200   518.889471  2343.408398  1347.230878 -1328.424832 -2436.680494  -551.064113
0.068400  2063.475825  2166.204869  -435.994141 -2550.626903 -1510.009991  1437.829372
0.069600  2627.597953   527.433547 -2253.339151 -2211.878178   602.340071  2644.376590
0.070800  1372.304897 -1585.101638 -2532.650812  -335.535683  2216.984004  1991.168269
0.072000  -660.078961 -2426.636713 -1205.874192  1429.247433  2267.339751   369.158448
0.073200 -1915.911066 -1859.379562   411.435053  2163.351943  1317.809739 -1106.609393
0.074400 -2205.567918  -656.034048  1704.797645  2033.775540  -122.677584 -2174.484117
0.075600 -1599.318751   962.311780  2400.489933   877.195198 -1786.472029 -2267.375992
0.076800    79.061249  2358.797135  1706.750330 -1089.687266 -2540.589951  -818.091468
0.078000  1927.264421  2260.359578  -223.492540 -2406.506070 -1574.675005  1179.768765
0.079200  2422.783787   677.042762 -1863.970565 -2073.818870   243.732607  2205.395714
0.080400  1443.187298 -1039.625721 -2202.159004  -697.444852  1605.350637  1952.446874
0.081600   -42.620596 -1971.805364 -1524.652639   758.553282  2132.443041   943.882905
0.082800 -1400.235409 -2073.733486  -226.645191  1938.839553  1769.142658  -595.838660
0.084000 -2280.588642 -1165.054977  1429.507648  2294.905089   307.636796 -2098.600325
0.085200 -1914.089819   683.145579  2442.207272  1147.685396 -1581.586892 -2326.840337
0.086400  -160.204394  2176.141307  1778.940124  -799.250170 -2341.118008  -970.934930
0.087600  1547.709769  2108.864230    99.654261 -1961.825120 -1600.739286   662.263398
0.088800  2074.300597   981.972437 -1252.524086 -1957.836186  -325.420852  1689.316963
0.090000  1685.204023  -343.358419 -1990.971402 -1249.721899  1029.764369  2100.538579
0.091200   614.504699 -1678.497850 -1950.953755   205.752264  2167.014459  1458.305513
0.092400 -1099.023859 -2320.528368  -646.367048  1852.426864  2042.447352  -327.462479
0.093600 -2290.088443 -1384.531268  1238.558807  2290.536918   484.017534 -1880.084160
0.094800 -1879.263685   419.714817  2146.172046  1219.986619 -1165.423063 -2073.073116
0.096000  -452.791812  1662.598110  1726.203986  -271.738734 -1903.074546 -1242.907417
0.097200   899.976687  1949.234972   649.325314 -1433.964378 -1798.983566    14.025807
0.098400  1831.694153  1448.553501  -712.107731 -2049.713056  -887.617007  1402.566507
0.099600  2005.293076   117.911942 -1954.634713 -1622.402961   743.238753  2213.541099
0.100800   928.987464 -1535.354900 -2093.215609   -23.396413  2069.694696  1566.477262
0.102000  -884.191140 -2208.653002  -775.949874  1584.278078  1945.548763   -92.779113
0.103200 -1961.505318 -1393.859849   846.816699  1988.503073   698.803771 -1390.785899
0.104400 -1758.069827   -21.080452  1699.238009  1368.925563  -584.265221 -1825.516269
0.105600  -874.042110  1130.906922  1794.886732   295.659457 -1598.821137 -1574.326965
0.106800   385.814201  1925.373829  1123.204161 -1103.676786 -2013.412778  -414.333311
0.108000  1742.155907  1748.695137  -446.207408 -2105.352049 -1135.918221  1263.273984
