##TITLE=1D-13C-1-2-5-328-110-"no"-"yes"
##JCAMP-DX=5.01 $$ Magritek Spinsolve SPA1903 2.0.4.4423
##DATA TYPE=NMR FID
##DATA CLASS=NTUPLES
##ORIGIN=SPA1903 at Magritek
##OWNER=Copyright (C) 2025 by Magritek
##LONGDATE=2025/03/17 11:59:27.065
##.OBSERVE FREQUENCY=15.4860999900848
##.OBSERVE NUCLEUS=^13C
##.DELAY=( 20,  2000)
##.ACQUISITION MODE=SIMULTANEOUS
##.FIELD= 1.5
##.AVERAGES= 1
##.DIGITISER RES=16
##.SHIFT REFERENCE=(INTERNAL, Water, 4096, 0)
##$REFERENCE_POINT= 796.529    $$ Referencing label
$$      Distance of the zero axis position (in Hz) from the last data
$$      point (right edge); positive values -> right edge is below 0 Hz
##SPECTROMETER/DATA SYSTEM=Magritek
##SAMPLE DESCRIPTION=solvent=Water
$$ Bruker specific parameters
$$ --------------------------
##$AUNMP=   <proc_1d_nosref>
##$INSTRUM= <Magritek>
##$SI=      8192
##$TD=      8192
##$TDeff=   8192
##$SW=      322.870200
##$BF1=     15.4860999900848
##$SF=      15.4843965190859
##$LB=      0
##$PHC0=    217.0
##$PHC1=    0.0
##$REVERSE= yes
$$ End of Bruker specific parameters
$$ ---------------------------------
##NTUPLES=NMR FID
##VAR_NAME=        TIME,            FID/REAL,            FID/IMAG, PAGE NUMBER
##SYMBOL=             X,                   R,                   I,           N
##VAR_TYPE= INDEPENDENT,           DEPENDENT,           DEPENDENT,        PAGE
##VAR_FORM=        AFFN,                AFFN,                AFFN,        AFFN
##VAR_DIM=         8192,                8192,                8192,           2
##UNITS=        SECONDS,     ARBITRARY UNITS,     ARBITRARY UNITS,            
##FIRST=              0,                   0,                   0,           1
##LAST=    1.638199e+00,  -0.386168182757027,   0.618899533981953,           2
##MIN=                0,    -3546.3630131782,   -3461.31730816992,           1
##MAX=     1.638199e+00,    3437.68266563615,    3691.17125088257,           2
##FACTOR=             1,                   1,                   1,           1
##PAGE=N=1
##DATA TABLE=(X++(R..R)), XYDATA
0.000000     0.000000  1481.480845 -2700.876948 -3441.564106   153.616511  3437.682666
0.001200  2459.018518 -1517.134374 -3546.363013 -1193.502168  2551.687696  3097.277464
0.002400  -107.681128 -3089.437567 -2299.548890  1219.747797  3220.251936  1335.380856
0.003600 -2132.210714 -3021.001342  -271.282017  2809.575169  2507.335186  -833.638188
0.004800 -3209.720587 -1708.328616  1925.304728  3260.728195   592.786402 -2864.402326
0.006000 -2835.136802   725.960560  3436.658134  1903.080580 -2026.953242 -3466.513626
0.007200  -588.374832  3038.680269  2882.044855  -870.853561 -3525.629848 -1779.043853
0.008400  2150.408384  3371.125477   415.115971 -2997.202506 -2673.483969   913.995819
0.009600  3306.105414  1625.068326 -1997.291993 -3109.974134  -438.249255  2697.265810
0.010800  2524.402396  -681.690359 -3011.101648 -1697.005174  1633.388150  2989.751945
0.012000   738.518459 -2409.415453 -2653.884098   317.547259  2929.948545  2016.382889
0.013200 -1382.311235 -3157.215177 -1060.176931  2401.720241  2949.839298  -169.488193
0.014400 -3137.829985 -2238.039931  1466.053305  3385.552931  1081.221481 -2600.199644
0.015600 -3038.627289   328.583160  3257.022505  2104.420653 -1642.935546 -3295.804901
0.016800  -862.465066  2579.842634  2788.145692  -410.678527 -3030.671472 -1894.012893
0.018000  1487.630063  2979.115956   857.754803 -2236.570540 -2596.925733   149.347867
0.019200  2690.564490  1990.740000 -1094.852203 -2867.680984 -1192.912342  1943.281539
0.020400  2766.990845   227.855165 -2653.542057 -2330.023073   889.080097  3074.374152
0.021600  1479.064353 -1995.691374 -3045.805506  -307.423123  2852.498044  2479.844054
0.022800 -1004.571872 -3252.665346 -1446.111482  2167.799238  3071.562667   144.083271
0.024000 -2922.084010 -2334.832431  1117.631706  3135.690607  1270.507661 -2108.789441
0.025200 -2839.060212  -100.658943  2691.826107  2164.773384  -960.032905 -2857.132332
0.026400 -1281.904437  1800.786601  2681.680457   333.257770 -2404.019730 -2237.596823
0.027600   624.547413  2746.754770  1548.796575 -1542.023482 -2789.305060  -654.748389
0.028800  2329.086512  2509.344319  -417.184618 -2885.661308 -1816.577395  1540.182260
0.030000  3028.615971   760.266227 -2493.187760 -2673.232511   487.958420  3065.612486
0.031200  1814.140291 -1706.676009 -3078.436286  -609.501924  2586.714335  2532.823498
0.032400  -638.645430 -2959.033604 -1604.537004  1684.094530  2834.428149   505.392695
0.033600 -2364.075020 -2298.935154   516.732581  2633.374946  1559.899758 -1355.695312
0.034800 -2612.363713  -726.928201  2021.303059  2336.003015  -152.433650 -2479.917822
0.036000 -1837.300367  1054.859183  2723.812903  1073.873651 -1949.744869 -2630.682102
0.037200   -45.465826  2649.942836  2084.280884 -1101.843284 -2963.843324 -1136.618996
0.038400  2147.272283  2753.187940   -77.817837 -2806.674938 -2020.003058  1277.390990
0.039600  2945.189414   944.837860 -2185.111186 -2563.953274   210.228050  2652.952227
0.040800  1804.628152 -1215.063242 -2679.495329  -870.964012  1931.846499  2346.013488
0.042000   -58.384037 -2349.749805 -1793.823897   904.376537  2497.261927  1079.758315
0.043200 -1647.101372 -2401.768417  -246.650118  2226.715703  2019.005821  -663.138031
0.044400 -2586.598468 -1356.128844  1580.564946  2617.472972   415.380779 -2342.943991
0.045600 -2221.356237   681.423332  2769.464145  1424.174744 -1709.961820 -2733.325811
0.046800  -337.198458  2482.075818  2192.302583  -823.967510 -2772.637370 -1267.722466
0.048000  1772.774479  2582.566204   211.403513 -2369.351980 -1992.379587   802.222511
0.049200  2536.746654  1162.372772 -1564.812293 -2344.385655  -304.104113  2064.754851
0.050400  1934.600779  -507.871700 -2325.783565 -1344.219386  1249.701821  2355.326539
0.051600   626.387748 -1894.105072 -2159.131257   225.280352  2401.335385  1657.548287
0.052800 -1173.297510 -2610.175723  -812.450604  2040.526643  2389.101780  -251.048539
0.054000 -2615.375954 -1716.759903  1344.487768  2728.832681   692.532858 -2189.116718
0.055200 -2313.176206   429.522872  2591.599183  1523.140147 -1391.666919 -2531.731810
0.056400  -555.275593  2032.742029  2090.329869  -372.640383 -2321.102527 -1437.945349
0.057600  1139.531246  2308.679500   702.930097 -1724.553815 -2076.405462    64.434863
0.058800  2139.463566  1650.927935  -852.494590 -2348.240200  -996.348240  1605.149189
0.060000  2290.837817   159.465738 -2224.614502 -1899.197305   807.802050  2553.335817
0.061200  1130.727195 -1725.942021 -2458.986398  -128.458638  2379.901260  1927.664816
0.062400  -934.923383 -2622.589852 -1043.718025  1825.913366  2390.464023   -10.082070
0.063600 -2343.721256 -1764.128639   959.644068  2459.700885   918.581748 -1700.004950
0.064800 -2185.306288   -29.270418  2109.462252  1663.941449  -763.888675 -2228.462197
0.066000 -1011.116788  1407.407933  2123.858146   285.267755 -1896.211260 -1803.943768
0.067200   469.545679  2209.053062  1281.662497 -1245.911782 -2298.649975  -529.422235
0.068400  1948.114012  2057.075834  -396.362718 -2402.436725 -1434.507202  1358.113128
0.069600  2483.367190   500.462129 -2123.646212 -2090.336065   558.881258  2490.374061
0.070800  1306.150001 -1483.245630 -2393.797772  -335.399538  2087.007358  1886.057850
0.072000  -606.341757 -2286.044051 -1145.149333  1338.589560  2142.377986   358.008925
0.073200 -1803.764482 -1766.340400   372.450835  2039.913820  1256.867380 -1031.926636
0.074400 -2089.579849  -635.089452  1609.446801  1931.044286  -105.337876 -2056.213657
0.075600 -1519.277591   906.575345  2268.520548   837.506173 -1681.348305 -2149.300596
0.076800    66.964700  2222.246235  1620.998514 -1018.829361 -2396.747377  -783.477661
0.078000  1812.186786  2138.204460  -202.083522 -2264.572412 -1496.699201  1102.890359
0.079200  2290.770971   649.610296 -1753.228049 -1958.338484   222.916666  2082.219948
0.080400  1371.176995  -972.943787 -2083.963446  -674.915756  1504.014488  1854.565430
0.081600   -21.156245 -1865.475878 -1455.598236   707.028215  2016.046792   904.020343
0.082800 -1317.102536 -1969.066804  -230.926417  1830.069463  1687.047974  -553.307418
0.084000 -2159.985115 -1114.651521  1347.209698  2174.792714   297.061214 -1984.376806
0.085200 -1816.961576   637.296503  2306.933076  1091.894909 -1492.828929 -2199.419631
0.086400  -159.757140  2050.622250  1686.422486  -746.180883 -2208.528040  -929.109147
0.087600  1455.476153  1999.852251   107.962284 -1851.980352 -1523.967608   612.061959
0.088800  1960.974384   942.745958 -1179.502981 -1864.430586  -321.433297  1597.944126
0.090000  1610.431966  -314.357935 -1881.646716 -1192.163853   968.517580  1994.653228
0.091200   589.375073 -1586.358990 -1861.237209   178.970831  2047.411301  1384.566920
0.092400 -1033.418052 -2197.220118  -620.351057  1748.038433  1938.005831  -302.412865
0.093600 -2168.255781 -1321.023085  1164.055676  2171.307064   476.130856 -1769.855851
0.094800 -1784.265111   382.200990  2028.545470  1169.971089 -1089.690134 -1967.752826
0.096000  -444.902691  1565.806237  1644.515462  -244.785300 -1805.498735 -1185.002036
0.097200   842.883072  1849.420782   634.687490 -1350.869489 -1708.398836    -4.860422
0.098400  1732.084699  1385.929179  -665.856545 -1942.758961  -854.161812  1329.502203
0.099600  1908.128914   118.025328 -1850.097835 -1542.595573   696.004589  2098.938978
0.100800   889.164412 -1443.004584 -1982.153576   -35.165823  1959.138012  1492.743928
0.102000  -825.886083 -2091.031580  -749.675123  1491.836897  1845.618650   -74.435719
0.103200 -1848.497813 -1324.402080   792.313768  1884.327097   675.808513 -1307.609827
0.104400 -1672.898271   -32.233485  1607.972713  1304.094235  -546.003388 -1734.762592
0.105600  -845.829930  1065.057492  1707.521515   293.441628 -1511.105037 -1506.351953
0.106800   351.153952  1826.607582  1076.554773 -1043.551516 -1916.919110  -400.594128
0.108000  1651.590540  1667.268996  -411.400532 -1992.722457 -1085.694830  1190.802787
