##TITLE=1D-13C-1-2-5-328-110-"no"-"yes"
##JCAMP-DX=5.01 $$ Magritek Spinsolve SPA1903 2.0.4.4423
##DATA TYPE=NMR FID
##DATA CLASS=NTUPLES
##ORIGIN=SPA1903 at Magritek
##OWNER=Copyright (C) 2025 by Magritek
##LONGDATE=2025/03/17 12:00:08.482
##.OBSERVE FREQUENCY=15.4860999900848
##.OBSERVE NUCLEUS=^13C
##.DELAY=( 20,  2000)
##.ACQUISITION MODE=SIMULTANEOUS
##.FIELD= 1.5
##.AVERAGES= 1
##.DIGITISER RES=16
##.SHIFT REFERENCE=(INTERNAL, Water, 4096, 0)
##$REFERENCE_POINT= 796.529    $$ Referencing label
$$      Distance of the zero axis position (in Hz) from the last data
$$      point (right edge); positive values -> right edge is below 0 Hz
##SPECTROMETER/DATA SYSTEM=Magritek
##SAMPLE DESCRIPTION=solvent=Water
$$ Bruker specific parameters
$$ --------------------------
##$AUNMP=   <proc_1d_nosref>
##$INSTRUM= <Magritek>
##$SI=      8192
##$TD=      8192
##$TDeff=   8192
##$SW=      322.870200
##$BF1=     15.4860999900848
##$SF=      15.4843965190859
##$LB=      0
##$PHC0=    217.3
##$PHC1=    0.0
##$REVERSE= yes
$$ End of Bruker specific parameters
$$ ---------------------------------
##NTUPLES=NMR FID
##VAR_NAME=        TIME,            FID/REAL,            FID/IMAG, PAGE NUMBER
##SYMBOL=             X,                   R,                   I,           N
##VAR_TYPE= INDEPENDENT,           DEPENDENT,           DEPENDENT,        PAGE
##VAR_FORM=        AFFN,                AFFN,                AFFN,        AFFN
##VAR_DIM=         8192,                8192,                8192,           2
##UNITS=        SECONDS,     ARBITRARY UNITS,     ARBITRARY UNITS,            
##FIRST=              0,                   0,                   0,           1
##LAST=    1.638199e+00,  -0.569826501542167,   0.375566248805139,           2
##MIN=                0,   -2513.74539125793,   -2471.50020816638,           1
##MAX=     1.638199e+00,    2440.22253068038,    2618.07872180412,           2
##FACTOR=             1,                   1,                   1,           1
##PAGE=N=1
##DATA TABLE=(X++(R..R)), XYDATA
0.000000     0.000000  1049.965801 -1906.582982 -2437.603671   107.235586  2432.592317
0.001200  1738.590189 -1075.711350 -2513.745391  -847.980141  1804.030143  2197.831406
0.002400   -69.495990 -2188.030067 -1627.769158   859.003611  2277.674516   957.709999
0.003600 -1506.940997 -2144.310744  -197.988565  1990.624040  1787.103144  -576.885622
0.004800 -2277.912474 -1226.964945  1348.859954  2313.417311   431.546395 -2032.548928
0.006000 -2019.080282   506.519673  2440.222531  1361.024958 -1431.997708 -2465.043202
0.007200  -426.245897  2161.539999  2058.042895  -605.802163 -2503.604581 -1281.263736
0.008400  1520.997172  2408.117202   310.771310 -2133.257108 -1918.266946   639.550121
0.009600  2358.527691  1164.459346 -1411.044582 -2219.885877  -321.920604  1919.265083
0.010800  1800.660701  -467.998967 -2136.573344 -1222.192659  1151.893734  2129.498366
0.012000   539.993522 -1701.335177 -1903.275288   209.303575  2091.131584  1453.791535
0.013200  -976.255730 -2254.847157  -774.758983  1701.130386  2115.601668  -105.687243
0.014400 -2234.207765 -1607.437197  1037.371460  2421.901803   787.749819 -1844.639819
0.015600 -2175.656350   217.859690  2329.201371  1523.320624 -1155.679242 -2358.822409
0.016800  -638.710930  1836.048626  1999.462392  -274.445787 -2155.137939 -1374.480037
0.018000  1044.193968  2127.597020   636.135821 -1584.790533 -1873.486366    86.496198
0.019200  1922.442817  1441.840043  -762.544435 -2053.163185  -878.874960  1374.665658
0.020400  1991.793206   189.062306 -1885.641340 -1686.686146   616.886129  2212.386975
0.021600  1083.717111 -1414.623798 -2195.414911  -242.989021  2041.119822  1800.806228
0.022800  -694.845503 -2330.759873 -1056.635328  1542.461054  2206.538026   129.929694
0.024000 -2087.798270 -1692.294847   786.091016  2251.869149   933.393142 -1494.117540
0.025200 -2044.402060   -99.645332  1918.065027  1575.276880  -659.498057 -2046.927990
0.026400  -945.537781  1271.276251  1935.182503   270.790352 -1708.828724 -1628.181598
0.027600   421.821369  1973.719610  1142.187026 -1078.560390 -2015.158940  -506.739049
0.028800  1654.709508  1822.922428  -266.743088 -2074.636434 -1342.307157  1084.141736
0.030000  2191.401635   576.139141 -1776.851466 -1944.806644   324.227311  2202.099668
0.031200  1330.606456 -1205.172196 -2227.341924  -469.670653  1840.775706  1835.682015
0.032400  -434.719785 -2128.361921 -1180.422531  1183.330196  2042.781648   394.354614
0.033600 -1684.212125 -1671.147318   335.062112  1887.582452  1155.142585  -944.834650
0.034800 -1890.185192  -562.473023  1434.168310  1714.671210   -65.779486 -1781.261236
0.036000 -1352.742745   737.791562  1977.045536   809.741066 -1387.650904 -1921.309502
0.037200   -72.361604  1916.429540  1542.930442  -763.443483 -2147.545521  -854.101785
0.038400  1525.724099  2011.803292   -18.962945 -2020.424001 -1485.271065   891.781781
0.039600  2133.174366   721.231324 -1547.245675 -1863.578372   109.789464  1906.975135
0.040800  1337.670681  -842.933469 -1943.237665  -670.342647  1372.942222  1720.361548
0.042000    -0.204573 -1692.920651 -1337.181313   612.445231  1821.164062   834.578166
0.043200 -1165.147127 -1759.412003  -219.108909  1601.798301  1499.199447  -442.487535
0.044400 -1882.030172 -1024.819836  1127.242354  1929.572848   343.492521 -1694.223325
0.045600 -1643.620358   460.660824  2016.467736  1077.577543 -1213.911965 -1999.444318
0.046800  -289.230235  1781.707217  1621.474519  -558.090607 -2014.812778  -962.164440
0.048000  1255.067102  1888.046544   197.424604 -1694.519399 -1474.754435   537.345021
0.049200  1841.083413   888.669107 -1102.083995 -1724.839544  -275.149237  1475.931971
0.050400  1436.597963  -330.291694 -1690.181710 -1023.671584   875.641048  1737.736334
0.051600   508.798209 -1363.580409 -1607.277652   122.779319  1752.053586  1254.118375
0.052800  -818.161811 -1916.678698  -638.967651  1466.523412  1767.583181  -141.567894
0.054000 -1898.373370 -1287.902248   946.105679  1994.086491   550.122177 -1564.686929
0.055200 -1714.779795   265.845106  1882.693230  1145.555710  -966.499251 -1844.817549
0.056400  -461.342752  1447.745350  1553.665061  -213.856318 -1678.747067 -1095.361417
0.057600   787.627430  1689.589011   568.968567 -1228.540372 -1542.611765    -7.331476
0.058800  1553.586838  1251.514629  -577.928623 -1725.292106  -781.869193  1143.828481
0.060000  1704.457219   171.267544 -1612.332034 -1427.097802   542.945064  1876.969072
0.061200   882.183926 -1229.347566 -1820.112085  -141.126788  1723.674635  1449.764305
0.062400  -631.195194 -1920.677380  -810.412140  1293.637418  1767.171493    51.681594
0.063600 -1692.924144 -1333.319644   656.074517  1794.798372   723.855646 -1195.047067
0.064800 -1622.898324   -79.822769  1517.287501  1257.041699  -496.826410 -1635.282458
0.066000  -800.931064   986.678866  1576.683553   271.212613 -1369.827224 -1362.277905
0.067200   294.308916  1621.705041   994.660798  -874.947803 -1710.805492  -448.219709
0.068400  1409.417526  1549.950232  -244.027674 -1760.588845 -1099.184728   948.431853
0.069600  1837.804241   424.810440 -1536.902010 -1568.649711   354.593942  1818.158631
0.070800  1007.892525 -1048.688486 -1766.692728  -301.428096  1496.265267  1417.620705
0.072000  -386.479999 -1669.807158  -895.025620   932.507451  1585.373108   329.597604
0.073200 -1290.099881 -1336.990799   213.608918  1492.423240   980.826116  -707.106436
0.074400 -1552.732138  -533.522398  1148.027006  1458.600290   -16.996105 -1505.579393
0.075600 -1172.332156   620.383183  1685.987611   679.148628 -1206.677293 -1613.926551
0.076800    -5.387859  1629.681700  1239.692734  -705.480216 -1777.747817  -632.054877
0.078000  1301.363965  1610.433254   -81.568268 -1651.935152 -1148.521544   763.389218
0.079200  1694.472682   535.848173 -1248.064222 -1476.719798    96.811687  1513.847464
0.080400  1062.164320  -655.300849 -1545.006598  -569.624486  1071.964056  1402.458958
0.081600    55.738375 -1349.146289 -1131.509167   461.988746  1504.850592   734.809126
0.082800  -932.863564 -1492.043086  -235.149850  1336.247965  1297.341556  -357.484539
0.084000 -1609.242593  -884.581630   959.613399  1629.690112   278.002204 -1446.039511
0.085200 -1384.920537   416.597114  1708.480607   860.830054 -1056.767403 -1648.655522
0.086400  -187.477656  1483.059729  1289.507767  -491.230551 -1632.900562  -751.163925
0.087600  1019.347365  1494.211195   146.709073 -1332.131965 -1172.967711   384.258093
0.088800  1445.603986   760.472421  -820.275496 -1406.017434  -310.556010  1150.957724
0.090000  1237.331627  -166.265144 -1396.712368  -950.134870   666.361561  1502.946012
0.091200   503.229600 -1149.039200 -1418.659525    76.253876  1516.004682  1084.643871
0.092400  -716.024284 -1646.113232  -520.468317  1267.231347  1478.254853  -160.970651
0.093600 -1595.095925 -1033.003029   809.108146  1620.961144   414.973031 -1273.040707
0.094800 -1359.511781   216.687612  1487.284900   920.062597  -747.667600 -1467.787230
0.096000  -401.759577  1115.918839  1259.146695  -105.099753 -1322.489463  -945.488175
0.097200   561.916338  1388.508256   547.365091  -960.357464 -1317.327753   -73.577526
0.098400  1273.693746  1091.963256  -440.621979 -1468.097789  -702.383088   949.849168
0.099600  1452.103987   154.910370 -1362.305398 -1202.533590   467.638113  1569.507932
0.100800   724.257826 -1039.349323 -1507.697159   -89.877268  1436.683348  1166.386537
0.102000  -553.244059 -1557.303913  -621.832508  1059.500086  1405.364741    19.944799
0.103200 -1350.085122 -1040.316106   518.720192  1404.250929   577.532734  -919.178769
0.104400 -1275.550005  -102.623167  1167.810446  1034.134559  -336.948861 -1300.337565
0.105600  -707.310072   748.440920  1316.707374   297.271060 -1106.139852 -1183.104346
0.106800   204.882225  1374.728990   872.135267  -734.810721 -1464.401564  -368.463840
0.108000  1210.230371  1293.762933  -245.773414 -1489.284924  -875.574664   838.407491
