##TITLE=1D-13C-1-2-5-328-110-"no"-"yes"
##JCAMP-DX=5.01 $$ Magritek Spinsolve SPA1903 2.0.4.4423
##DATA TYPE=NMR FID
##DATA CLASS=NTUPLES
##ORIGIN=SPA1903 at Magritek
##OWNER=Copyright (C) 2025 by Magritek
##LONGDATE=2025/03/17 11:57:33.429
##.OBSERVE FREQUENCY=15.4860999900848
##.OBSERVE NUCLEUS=^13C
##.DELAY=( 20,  2000)
##.ACQUISITION MODE=SIMULTANEOUS
##.FIELD= 1.5
##.AVERAGES= 1
##.DIGITISER RES=16
##.SHIFT REFERENCE=(INTERNAL, Water, 4096, 0)
##$REFERENCE_POINT= 796.529    $$ Referencing label
$$      Distance of the zero axis position (in Hz) from the last data
$$      point (right edge); positive values -> right edge is below 0 Hz
##SPECTROMETER/DATA SYSTEM=Magritek
##SAMPLE DESCRIPTION=solvent=Water
$$ Bruker specific parameters
$$ --------------------------
##$AUNMP=   <proc_1d_nosref>
##$INSTRUM= <Magritek>
##$SI=      8192
##$TD=      8192
##$TDeff=   8192
##$SW=      322.870200
##$BF1=     15.4860999900848
##$SF=      15.4843965190859
##$LB=      0
##$PHC0=    217.5
##$PHC1=    0.0
##$REVERSE= yes
$$ End of Bruker specific parameters
$$ ---------------------------------
##NTUPLES=NMR FID
##VAR_NAME=        TIME,            FID/REAL,            FID/IMAG, PAGE NUMBER
##SYMBOL=             X,                   R,                   I,           N
##VAR_TYPE= INDEPENDENT,           DEPENDENT,           DEPENDENT,        PAGE
##VAR_FORM=        AFFN,                AFFN,                AFFN,        AFFN
##VAR_DIM=         8192,                8192,                8192,           2
##UNITS=        SECONDS,     ARBITRARY UNITS,     ARBITRARY UNITS,            
##FIRST=              0,                   0,                   0,           1
##LAST=    1.638199e+00,   0.578522787997374,  -0.737324246054311,           2
##MIN=                0,   -9345.69919657207,   -8860.20806681899,           1
##MAX=     1.638199e+00,     9014.8430862741,    9696.67637752495,           2
##FACTOR=             1,                   1,                   1,           1
##PAGE=N=1
##DATA TABLE=(X++(R..R)), XYDATA
0.000000     0.000000  3876.506671 -7131.120949 -9039.976132   427.254782  9014.843086
0.001200  6453.026533 -3982.335316 -9345.699197 -3156.724519  6716.106158  8141.206531
0.002400  -304.103189 -8118.899551 -6007.477888  3222.475265  8446.448456  3483.671995
0.003600 -5637.146176 -7909.661146  -623.389165  7397.587822  6501.862344 -2257.349909
0.004800 -8364.339912 -4357.205142  5075.631668  8447.525307  1415.788703 -7502.847015
0.006000 -7244.259599  2020.196988  8884.232162  4773.958335 -5324.863248 -8886.784300
0.007200 -1399.037071  7870.410063  7338.455721 -2337.609565 -9055.098613 -4478.005353
0.008400  5594.484094  8617.120843   981.100202 -7728.591497 -6798.512978  2431.411689
0.009600  8507.432091  4074.863665 -5226.030405 -7945.779282  -971.452391  6983.469922
0.010800  6347.303737 -1872.242409 -7702.928481 -4208.055589  4317.080030  7583.748610
0.012000  1676.172620 -6238.826277 -6592.051395  1016.225517  7437.017031  4914.783475
0.013200 -3666.807983 -7933.154256 -2473.075270  6184.220485  7305.958999  -654.372627
0.014400 -7899.697514 -5410.560204  3840.288651  8432.622674  2534.004761 -6623.264726
0.015600 -7521.615389  1019.772801  8218.409234  5094.139827 -4279.565157 -8206.156569
0.016800 -1975.710698  6575.021584  6891.665349 -1260.452953 -7656.830351 -4533.385318
0.018000  3964.589952  7395.394588  1886.150880 -5710.978698 -6342.143717   623.722354
0.019200  6780.294683  4732.286719 -2995.486649 -7085.495808 -2653.533864  4985.941602
0.020400  6680.499488   271.606458 -6622.943797 -5525.910678  2448.747459  7568.631933
0.021600  3365.242557 -5107.393734 -7349.885180  -461.485044  7105.937583  5887.653051
0.022800 -2712.454674 -7983.557582 -3291.713927  5517.451182  7401.115271    60.064455
0.024000 -7268.716962 -5506.846752  3008.934065  7666.260503  2834.305931 -5375.277848
0.025200 -6845.708143    63.413773  6737.506462  5069.641470 -2683.650393 -6994.492422
0.026400 -2806.018599  4649.670037  6407.298810   457.085995 -6007.444455 -5197.698223
0.027600  1889.592685  6676.851838  3382.075319 -4000.926273 -6586.505427 -1206.493052
0.028800  5751.507488  5804.365077 -1341.393101 -6983.407213 -4037.444379  3971.427621
0.030000  7140.957992  1473.408620 -6099.014764 -6187.998484  1467.677076  7391.976009
0.031200  4073.450686 -4369.990792 -7301.288341 -1103.322776  6374.320456  5853.546755
0.032400 -1866.179192 -7158.822751 -3545.068279  4365.482449  6729.918634   794.414434
0.033600 -5887.263052 -5222.321185  1660.466536  6341.918588  3344.537996 -3583.684248
0.034800 -6118.012046 -1279.641801  5035.690690  5255.219798  -811.884637 -5900.804827
0.036000 -3936.190412  2823.900328  6301.099332  2120.561552 -4794.562092 -5930.743736
0.037200   292.596510  6287.226484  4549.444776 -2899.295814 -6861.140163 -2285.392022
0.038400  5227.601606  6251.196782  -573.218274 -6689.579299 -4404.658494  3354.104752
0.039600  6844.009660  1789.753622 -5384.305190 -5765.936984   938.581585  6331.599350
0.040800  3853.457019 -3258.649087 -6204.706035 -1555.603333  4823.509422  5208.050908
0.042000  -655.241721 -5576.952844 -3748.238761  2534.046309  5729.517829  2011.373791
0.043200 -4127.919459 -5269.022610   -40.873440  5243.058262  4211.670178 -1952.830014
0.044400 -5854.459186 -2647.641975  3920.047746  5765.675232   461.357526 -5505.220624
0.045600 -4692.338575  1963.309627  6258.368485  2823.607394 -4191.414960 -6053.935843
0.046800  -313.978727  5847.650490  4658.483404 -2335.091325 -6331.090141 -2446.331834
0.048000  4387.844322  5717.869518   -28.206743 -5647.196457 -4186.004482  2369.270598
0.049200  5818.908629  2105.314862 -3987.193004 -5105.094860  -107.201458  4912.497895
0.050400  3969.224934 -1722.581445 -5266.735150 -2463.781277  3243.290655  5045.882716
0.051600   816.770946 -4445.568530 -4438.936021   998.384653  5379.672451  3210.351996
0.052800 -3006.340600 -5638.314905 -1307.610096  4757.243216  5012.584992 -1019.136738
0.054000 -5898.259110 -3426.298238  3403.371051  5993.496957  1047.335135 -5191.520149
0.055200 -4889.793218  1494.249475  5921.889513  2944.575182 -3596.892229 -5561.766984
0.056400  -660.886014  4897.684321  4335.586432 -1454.115366 -5295.291819 -2656.594367
0.057600  3058.576208  4968.893692   930.108013 -4152.397949 -4227.751718   756.001999
0.058800  4824.668603  3087.903948 -2385.526506 -5015.128435 -1604.609663  3813.977077
0.060000  4701.013496  -176.141238 -4983.450295 -3706.840847  2240.527381  5505.038132
0.061200  1946.336855 -4084.608315 -5103.959273   223.101737  5346.437885  3834.758272
0.062400 -2521.215513 -5743.732062 -1746.323009  4384.407364  4981.143181  -576.169237
0.063600 -5325.262713 -3448.859107  2646.436351  5387.381517  1438.381806 -4176.124331
0.064800 -4519.746258   618.182924  4817.490793  3118.538605 -2246.896939 -4812.324685
0.066000 -1575.864495  3510.884108  4295.455296   -85.207550 -4298.645569 -3346.857987
0.067200  1595.554450  4665.705676  2163.467395 -3043.879823 -4652.376760  -547.626958
0.068400  4347.733749  3958.470325 -1357.153206 -5103.344034 -2567.082417  3248.972260
0.069600  5118.199449   569.007187 -4774.771270 -4138.791860  1722.391029  5406.304329
0.070800  2294.244347 -3642.686567 -4963.244483   -93.270376  4792.249614  3653.213148
0.072000 -1947.803309 -4988.009500 -1843.651673  3418.084225  4351.670056    29.142450
0.073200 -4160.390512 -3256.058366  1480.250668  4340.091958  2000.304583 -2689.106688
0.074400 -4143.034630  -631.435164  3646.480164  3562.889420  -823.795691 -4287.042226
0.075600 -2614.898849  2329.729637  4554.133602  1164.348392 -3788.806758 -4107.517751
0.076800   716.197896  4718.158383  2881.849634 -2582.086146 -4899.837772 -1087.190358
0.078000  4138.291085  4174.425725 -1039.240860 -4899.582532 -2603.233527  2864.022299
0.079200  4691.105760   724.540036 -4063.103378 -3772.117792  1159.381829  4538.843486
0.080400  2274.748661 -2654.652987 -4199.140796  -679.704127  3540.986544  3445.862940
0.081600  -762.020032 -4003.339980 -2386.987090  2071.819878  3989.521995  1133.030520
0.082800 -3064.801538 -3625.089548   172.445131  3851.707273  2902.313033 -1657.970995
0.084000 -4290.091631 -1670.960749  3086.530826  4112.624914    40.409594 -4186.342071
0.085200 -3273.274500  1792.242381  4697.428290  1707.320416 -3459.515931 -4282.315696
0.086400   266.021254  4451.144042  3042.420613 -2136.465438 -4580.728093 -1303.202867
0.087600  3504.980733  3864.970297  -507.226228 -4097.412880 -2591.828714  1964.546565
0.088800  3987.665060  1195.369655 -2909.990923 -3445.343698    95.056647  3460.457389
0.090000  2682.769261 -1284.081370 -3713.381041 -1719.070127  2352.816765  3668.787252
0.091200   565.034184 -3348.752027 -3274.024110   882.682917  4094.819562  2260.198938
0.092400 -2460.991842 -4195.650627  -700.898491  3746.995006  3561.273423 -1124.395440
0.093600 -4454.333341 -2172.100709  2850.317007  4243.065110   316.325451 -3907.464374
0.094800 -3216.387687  1410.974578  4209.163940  1779.029782 -2782.196573 -3796.820525
0.096000  -151.985138  3521.164318  2821.243671 -1200.424823 -3657.018502 -1716.175387
0.097200  2230.333882  3462.342388   522.516150 -3007.216792 -2898.373823   665.340699
0.098400  3421.524075  2104.665034 -1774.837877 -3597.289277 -1052.536123  2878.912238
0.099600  3342.032850  -340.984703 -3669.196983 -2507.041845  1802.892387  3964.734783
0.100800  1206.564225 -3137.136948 -3605.837536   485.111304  3993.680120  2476.783464
0.102000 -2143.631648 -4051.176509  -884.204258  3346.224310  3349.845813  -807.896377
0.103200 -3872.908577 -2077.226882  2209.497301  3645.252450   597.185055 -3043.487964
0.104400 -2871.717616   718.254512  3313.099838  1889.284766 -1720.490342 -3201.535680
0.105600  -865.367907  2466.536216  2842.162642  -160.851875 -2985.308813 -2267.730781
0.106800  1199.423079  3317.368975  1436.830479 -2309.057848 -3316.174565  -199.348006
0.108000  3268.014866  2717.812315 -1269.312280 -3757.302728 -1563.120439  2661.737511
