##TITLE=1D-13C-1-2-5-328-110-"no"-"yes"
##JCAMP-DX=5.01 $$ Magritek Spinsolve SPA1903 2.0.4.4423
##DATA TYPE=NMR FID
##DATA CLASS=NTUPLES
##ORIGIN=SPA1903 at Magritek
##OWNER=Copyright (C) 2025 by Magritek
##LONGDATE=2025/03/17 11:57:30.012
##.OBSERVE FREQUENCY=15.4860999900848
##.OBSERVE NUCLEUS=^13C
##.DELAY=( 20,  2000)
##.ACQUISITION MODE=SIMULTANEOUS
##.FIELD= 1.5
##.AVERAGES= 1
##.DIGITISER RES=16
##.SHIFT REFERENCE=(INTERNAL, Water, 4096, 0)
##$REFERENCE_POINT= 796.529    $$ Referencing label
$$      Distance of the zero axis position (in Hz) from the last data
$$      point (right edge); positive values -> right edge is below 0 Hz
##SPECTROMETER/DATA SYSTEM=Magritek
##SAMPLE DESCRIPTION=solvent=Water
$$ Bruker specific parameters
$$ --------------------------
##$AUNMP=   <proc_1d_nosref>
##$INSTRUM= <Magritek>
##$SI=      8192
##$TD=      8192
##$TDeff=   8192
##$SW=      322.870200
##$BF1=     15.4860999900848
##$SF=      15.4843965190859
##$LB=      0
##$PHC0=    217.3
##$PHC1=    0.0
##$REVERSE= yes
$$ End of Bruker specific parameters
$$ ---------------------------------
##NTUPLES=NMR FID
##VAR_NAME=        TIME,            FID/REAL,            FID/IMAG, PAGE NUMBER
##SYMBOL=             X,                   R,                   I,           N
##VAR_TYPE= INDEPENDENT,           DEPENDENT,           DEPENDENT,        PAGE
##VAR_FORM=        AFFN,                AFFN,                AFFN,        AFFN
##VAR_DIM=         8192,                8192,                8192,           2
##UNITS=        SECONDS,     ARBITRARY UNITS,     ARBITRARY UNITS,            
##FIRST=              0,                   0,                   0,           1
##LAST=    1.638199e+00,   0.486969788448311,  -0.714807221893956,           2
##MIN=                0,   -9602.72561120841,   -9094.52107951153,           1
##MAX=     1.638199e+00,      9259.338985541,    9962.28812944443,           2
##FACTOR=             1,                   1,                   1,           1
##PAGE=N=1
##DATA TABLE=(X++(R..R)), XYDATA
0.000000     0.000000  3989.328816 -7327.199663 -9284.251413   441.672451  9259.338986
0.001200  6635.094324 -4081.546638 -9602.725611 -3248.015515  6907.001944  8370.196643
0.002400  -314.406080 -8339.809532 -6174.568440  3303.664551  8678.302364  3584.489535
0.003600 -5785.701515 -8127.577394  -642.380028  7602.090033  6675.898356 -2323.411127
0.004800 -8599.912079 -4481.303345  5219.517523  8681.582386  1449.811011 -7714.289684
0.006000 -7434.894241  2080.138045  9118.820507  4896.240283 -5467.165270 -9119.466551
0.007200 -1425.798556  8088.792686  7534.815864 -2409.070242 -9300.508729 -4591.159745
0.008400  5745.562535  8841.719485  1003.910843 -7934.857432 -6981.229990  2500.403684
0.009600  8736.015569  4178.814772 -5369.549915 -8150.539754  -996.298565  7165.056702
0.010800  6509.922978 -1932.859918 -7906.302053 -4320.610194  4439.110328  7795.502750
0.012000  1704.925232 -6409.687482 -6763.423404  1050.002579  7635.922722  5027.825740
0.013200 -3771.503624 -8135.178249 -2529.214936  6357.108882  7490.340367  -678.494090
0.014400 -8100.273807 -5542.115018  3946.753586  8647.569850  2588.575202 -6801.846824
0.015600 -7707.620828  1065.961218  8441.828382  5215.391281 -4396.320079 -8413.121261
0.016800 -2025.314193  6748.141920  7071.098111 -1294.840426 -7859.702933 -4645.176551
0.018000  4076.758702  7585.039912  1925.010800 -5866.793928 -6508.329285   646.462047
0.019200  6958.348431  4849.440522 -3086.646210 -7263.693976 -2697.600643  5124.657318
0.020400  6839.570584   272.223208 -6792.895835 -5662.653142  2529.428126  7766.631795
0.021600  3427.910658 -5250.154180 -7522.136065  -455.409858  7283.712142  6025.985598
0.022800 -2790.787024 -8190.367306 -3355.572850  5677.819151  7585.004026    45.902027
0.024000 -7457.593082 -5636.949402  3097.963646  7868.386513  2893.182234 -5522.275030
0.025200 -7015.404488    80.616867  6907.143993  5184.166433 -2763.979620 -7174.204743
0.026400 -2862.450815  4779.384145  6572.591305   457.330965 -6164.632812 -5316.734739
0.027600  1961.228355  6855.644072  3456.183097 -4120.685029 -6752.893447 -1222.175506
0.028800  5913.022308  5940.036875 -1396.088207 -7162.683062 -4113.894810  4094.632020
0.030000  7314.508355  1491.159030 -6259.884043 -6337.489982  1508.508296  7580.084320
0.031200  4162.084163 -4505.558030 -7482.929361 -1106.966770  6539.659682  5989.216453
0.032400 -1928.304940 -7335.566617 -3627.990255  4483.926955  6889.472778   788.060936
0.033600 -6044.631657 -5343.598227  1717.746569  6492.024015  3414.629819 -3686.982593
0.034800 -6272.623192 -1290.314421  5177.719748  5375.884586  -856.542966 -6044.269639
0.036000 -4009.942178  2898.367721  6443.214664  2155.954800 -4926.776837 -6071.073967
0.037200   318.873272  6444.874675  4645.470627 -2985.339102 -7015.342220 -2322.694375
0.038400  5360.159842  6394.130124  -611.581081 -6859.026898 -4493.278870  3452.611844
0.039600  6999.567698  1815.585108 -5510.363762 -5894.983305   968.828396  6484.347864
0.040800  3930.035419 -3349.927421 -6349.345874 -1574.298103  4947.609139  5321.112195
0.042000  -679.231955 -5710.970980 -3815.325892  2607.934726  5857.605496  2043.045195
0.043200 -4233.821626 -5381.535165   -22.367398  5370.859579  4294.176798 -2007.563564
0.044400 -5983.630864 -2697.104881  4016.405044  5888.700028   448.228113 -5634.785956
0.045600 -4782.582866  2020.458988  6392.004015  2870.931170 -4293.722763 -6179.412930
0.046800  -306.512955  5982.500936  4747.722691 -2405.528242 -6461.973538 -2479.084057
0.048000  4485.915266  5828.821883   -43.620125 -5773.313928 -4263.831048  2435.325815
0.049200  5936.720963  2130.263292 -4081.638293 -5208.164532  -102.224002  5025.102546
0.050400  4047.059298 -1774.149120 -5379.648277 -2491.191971  3328.896188  5132.461738
0.051600   812.843802 -4540.331507 -4519.745540  1030.472923  5489.006574  3265.286737
0.052800 -3083.848041 -5746.425919 -1312.722598  4857.181361  5100.599587 -1050.567121
0.054000 -6012.338930 -3479.992178  3490.281946  6115.009561  1048.714542 -5301.446281
0.055200 -4973.848809  1538.812939  6036.967192  2985.077863 -3679.553902 -5663.877854
0.056400  -658.611891  5009.696939  4406.156883 -1505.424123 -5396.508475 -2689.120913
0.057600  3132.556507  5063.833658   931.168377 -4240.977144 -4295.291781   793.044238
0.058800  4926.832302  3132.467357 -2446.361099 -5101.882669 -1619.424699  3893.714549
0.060000  4778.943703  -196.921770 -5083.209522 -3765.378321  2301.219654  5609.316588
0.061200  1961.985981 -4174.154193 -5185.361378   239.170428  5448.578280  3902.295014
0.062400 -2588.685697 -5854.400629 -1754.835838  4477.173794  5059.943331  -608.310184
0.063600 -5432.544624 -3502.695502  2707.886883  5483.024444  1442.220630 -4267.374261
0.064800 -4590.891293   648.064789  4902.481769  3148.575697 -2310.528096 -4899.901143
0.066000 -1581.326959  3587.201314  4367.396104  -109.765366 -4382.285264 -3385.065248
0.067200  1638.209206  4739.939526  2172.200142 -3115.339548 -4727.642908  -529.769460
0.068400  4431.915001  4000.786999 -1403.198653 -5180.512034 -2588.830506  3315.844896
0.069600  5195.374505   549.809133 -4866.145308 -4192.149057  1772.937179  5493.703379
0.070800  2304.447086 -3723.805360 -5032.949701   -73.463153  4879.923012  3694.309398
0.072000 -2013.491420 -5073.459294 -1840.895783  3494.613169  4405.902873    -2.808405
0.073200 -4233.654084 -3278.576782  1528.509994  4413.534002  2005.916994 -2754.169301
0.074400 -4192.053419  -606.350997  3717.038659  3601.672226  -854.254016 -4350.052100
0.075600 -2631.958750  2382.434300  4616.910002  1154.530358 -3861.966815 -4148.205771
0.076800   752.269675  4789.241395  2901.606500 -2646.898733 -4962.257500 -1071.611080
0.078000  4223.075719  4219.424728 -1093.011519 -4978.001727 -2599.494981  2936.736955
0.079200  4747.171148   699.851747 -4144.025301 -3806.588990  1208.991555  4607.943939
0.080400  2272.115280 -2729.646615 -4250.305594  -650.786968  3607.066246  3474.335095
0.081600  -809.235667 -4069.833568 -2389.994395  2139.245184  4040.981608  1107.254198
0.082800 -3125.813198 -3646.016204   213.819651  3915.543364  2926.543340 -1710.258421
0.084000 -4349.049323 -1652.317030  3149.443642  4146.655977    12.153040 -4247.119281
0.085200 -3293.183550  1847.113604  4763.669133  1698.996562 -3535.867047 -4326.485740
0.086400   312.285573  4529.893616  3062.375229 -2194.703579 -4643.499942 -1289.413041
0.087600  3585.562769  3910.395393  -560.744586 -4182.342751 -2595.923803  2036.662908
0.088800  4038.168460  1164.055838 -2982.709246 -3480.074540   143.718249  3528.140121
0.090000  2685.380491 -1344.051948 -3765.422544 -1708.004507  2414.754546  3708.300021
0.091200   536.474744 -3405.804792 -3294.921375   934.139616  4150.697567  2256.893473
0.092400 -2520.195789 -4239.615725  -667.248239  3811.147384  3589.886141 -1166.185586
0.093600 -4524.776299 -2175.334202  2919.985851  4289.611539   278.386477 -3989.179249
0.094800 -3241.671680  1466.719516  4274.446079  1769.041790 -2853.003001 -3841.522741
0.096000  -105.280783  3599.593364  2831.877445 -1257.449401 -3707.065154 -1702.322209
0.097200  2294.067324  3500.539752   489.738249 -3070.949193 -2911.825511   712.192620
0.098400  3471.006632  2101.883437 -1824.693766 -3639.201464 -1035.810353  2938.018050
0.099600  3366.488039  -385.114967 -3725.947572 -2505.642328  1855.112012  4007.958978
0.100800  1189.651615 -3208.880966 -3645.004290   532.370572  4066.392174  2480.669290
0.102000 -2207.830655 -4100.343821  -861.257354  3411.487963  3382.402489  -851.410123
0.103200 -3938.115191 -2071.144401  2282.819836  3688.432354   559.257837 -3114.141903
0.104400 -2893.297366   767.388853  3370.037339  1881.735648 -1787.600788 -3244.467117
0.105600  -829.884310  2526.312103  2853.365527  -204.627642 -3028.807726 -2266.658258
0.106800  1242.979984  3352.762943  1423.087077 -2362.156171 -3343.728890  -160.768713
0.108000  3323.610784  2724.397782 -1314.048134 -3801.328479 -1553.041631  2723.084279
