##TITLE=1D-13C-1-2-5-328-110-"no"-"yes"
##JCAMP-DX=5.01 $$ Magritek Spinsolve SPA1903 2.0.4.4423
##DATA TYPE=NMR FID
##DATA CLASS=NTUPLES
##ORIGIN=SPA1903 at Magritek
##OWNER=Copyright (C) 2025 by Magritek
##LONGDATE=2025/03/17 11:58:24.226
##.OBSERVE FREQUENCY=15.4860999900848
##.OBSERVE NUCLEUS=^13C
##.DELAY=( 20,  2000)
##.ACQUISITION MODE=SIMULTANEOUS
##.FIELD= 1.5
##.AVERAGES= 1
##.DIGITISER RES=16
##.SHIFT REFERENCE=(INTERNAL, Water, 4096, 0)
##$REFERENCE_POINT= 796.529    $$ Referencing label
$$      Distance of the zero axis position (in Hz) from the last data
$$      point (right edge); positive values -> right edge is below 0 Hz
##SPECTROMETER/DATA SYSTEM=Magritek
##SAMPLE DESCRIPTION=solvent=Water
$$ Bruker specific parameters
$$ --------------------------
##$AUNMP=   <proc_1d_nosref>
##$INSTRUM= <Magritek>
##$SI=      8192
##$TD=      8192
##$TDeff=   8192
##$SW=      322.870200
##$BF1=     15.4860999900848
##$SF=      15.4843965190859
##$LB=      0
##$PHC0=    217.2
##$PHC1=    0.0
##$REVERSE= yes
$$ End of Bruker specific parameters
$$ ---------------------------------
##NTUPLES=NMR FID
##VAR_NAME=        TIME,            FID/REAL,            FID/IMAG, PAGE NUMBER
##SYMBOL=             X,                   R,                   I,           N
##VAR_TYPE= INDEPENDENT,           DEPENDENT,           DEPENDENT,        PAGE
##VAR_FORM=        AFFN,                AFFN,                AFFN,        AFFN
##VAR_DIM=         8192,                8192,                8192,           2
##UNITS=        SECONDS,     ARBITRARY UNITS,     ARBITRARY UNITS,            
##FIRST=              0,                   0,                   0,           1
##LAST=    1.638199e+00,   0.197253069752086,  -0.105887532049998,           2
##MIN=                0,   -6028.38797937079,     -5805.270102351,           1
##MAX=     1.638199e+00,    5823.64929146219,    6276.56664546601,           2
##FACTOR=             1,                   1,                   1,           1
##PAGE=N=1
##DATA TABLE=(X++(R..R)), XYDATA
0.000000     0.000000  2512.496804 -4590.289597 -5840.132691   267.184532  5823.649291
0.001200  4168.528089 -2572.904859 -6028.387979 -2037.376528  4331.039794  5260.150165
0.002400  -180.711466 -5240.213653 -3893.677527  2069.274350  5455.269944  2263.963880
0.003600 -3625.861960 -5119.291465  -442.422212  4768.568589  4242.686967 -1429.520860
0.004800 -5435.586189 -2870.318411  3270.526732  5505.892833   964.553764 -4865.310036
0.006000 -4744.890118  1267.373179  5785.164988  3161.608470 -3447.757328 -5823.812730
0.007200  -953.130217  5129.038311  4824.003838 -1493.257812 -5923.114993 -2970.850854
0.008400  3631.183797  5660.158014   678.128731 -5052.019241 -4474.710727  1564.074001
0.009600  5569.370601  2699.897482 -3379.593529 -5214.556279  -696.362570  4551.677464
0.010800  4199.108044 -1182.830777 -5054.859993 -2812.860722  2782.797347  4992.346662
0.012000  1172.101291 -4063.865752 -4393.781886   586.821127  4904.845889  3309.539335
0.013200 -2366.916956 -5260.475029 -1714.838604  4047.893350  4883.282256  -353.235608
0.014400 -5227.086354 -3656.782800  2499.488611  5611.634038  1741.317625 -4355.832131
0.015600 -5020.508165   606.924953  5437.540750  3440.211374 -2782.960426 -5465.806753
0.016800 -1389.243233  4318.552280  4609.572436  -753.912852 -5053.855865 -3089.145198
0.018000  2544.453430  4938.099607  1350.658802 -3757.739670 -4280.006832   318.799688
0.019200  4485.377036  3233.947352 -1900.192052 -4742.424031 -1878.247407  3275.047014
0.020400  4527.391509   288.861328 -4409.778351 -3785.337856  1550.958361  5085.042096
0.021600  2356.570600 -3357.500214 -4984.709375  -414.022049  4741.026867  4034.331622
0.022800 -1733.142992 -5366.813698 -2298.875958  3634.333774  5013.591258   146.921460
0.024000 -4851.250174 -3785.548792  1924.801912  5164.099879  2008.251664 -3534.577836
0.025200 -4641.142455   -75.486144  4479.369089  3497.408396 -1681.251279 -4710.751624
0.026400 -2015.425858  3045.216283  4372.193739   435.704823 -3999.146923 -3601.553885
0.027600  1145.402152  4515.726483  2428.346101 -2617.510234 -4529.556288  -946.109402
0.028800  3856.434842  4019.124455  -797.903486 -4740.022526 -2867.076257  2609.709783
0.030000  4912.443323  1128.591554 -4111.409401 -4290.909996   893.365198  5015.619448
0.031200  2872.746473 -2875.030646 -4998.937213  -878.788893  4275.351240  4064.050873
0.032400 -1149.254948 -4848.646968 -2519.736914  2857.646712  4607.582829   694.603013
0.033600 -3927.116219 -3664.801998   978.149955  4310.524189  2419.417301 -2320.664647
0.034800 -4222.463642 -1043.386991  3359.165094  3706.655889  -393.286431 -4034.937522
0.036000 -2846.235879  1824.765360  4376.615405  1610.632144 -3228.229090 -4178.408566
0.037200    58.886509  4314.332661  3269.342720 -1888.601616 -4766.247970 -1709.885293
0.038400  3529.152837  4385.211098  -261.582814 -4575.150070 -3150.393671  2190.795023
0.039600  4744.738947  1390.184340 -3622.870360 -4065.943556   483.713601  4328.011345
0.040800  2795.987916 -2099.160428 -4312.528202 -1255.985813  3226.893646  3704.626688
0.042000  -267.281993 -3827.836510 -2755.074065  1600.309595  4004.510292  1583.712541
0.043200 -2752.383895 -3772.309818  -225.161554  3617.189797  3098.524261 -1216.195822
0.044400 -4119.843479 -2020.254109  2634.357939  4123.394165   497.369443 -3804.328524
0.045600 -3427.017088  1225.033292  4404.504091  2130.377753 -2834.904623 -4305.098563
0.046800  -383.115505  4029.852224  3389.636088 -1475.561248 -4442.108961 -1871.647995
0.048000  2949.418747  4060.644639   164.105574 -3864.477720 -3064.613583  1459.193738
0.049200  4065.097867  1683.721032 -2640.629720 -3675.045718  -291.780937  3369.772860
0.050400  2948.101439  -996.742977 -3709.330409 -1955.153669  2134.645160  3662.483962
0.051600   795.697568 -3079.473700 -3296.436547   526.896558  3809.872778  2461.989836
0.052800 -1991.344846 -4070.649331 -1112.963011  3308.689969  3680.071678  -559.485926
0.054000 -4168.223345 -2577.946241  2271.907178  4280.044469   921.831573 -3572.353769
0.055200 -3568.109183   860.265713  4147.726048  2259.207093 -2367.158864 -3975.805440
0.056400  -684.657021  3340.261806  3204.163595  -794.179359 -3717.610858 -2096.454122
0.057600  1978.109191  3599.745253   900.775711 -2836.667015 -3157.361445   311.800467
0.058800  3414.265755  2407.339290 -1520.194097 -3650.371546 -1371.810428  2633.504228
0.060000  3494.935268    69.060620 -3538.509943 -2829.948281  1433.926179  3988.706426
0.061200  1595.310722 -2824.904711 -3767.129630   -24.407705  3787.256875  2892.521051
0.062400 -1634.114680 -4126.903429 -1452.282123  3005.854337  3668.130774  -201.754843
0.063600 -3749.193987 -2634.300014  1706.896906  3870.227237  1246.416437 -2821.331861
0.064800 -3343.189669   186.588163  3384.454082  2436.743755 -1395.478341 -3485.639167
0.066000 -1371.811176  2363.905086  3224.747368   205.053029 -3042.760228 -2635.725267
0.067200   940.584927  3424.669606  1791.632640 -2075.385126 -3491.414979  -619.114185
0.068400  3101.966957  3050.601562  -800.834216 -3731.610725 -2059.083786  2230.474845
0.069600  3798.343118   602.929979 -3395.552323 -3140.205749  1058.029184  3904.632808
0.070800  1852.429189 -2477.797533 -3667.375024  -302.408930  3359.443733  2797.573887
0.072000 -1172.929758 -3589.305102 -1573.126056  2275.719481  3254.366768   301.596031
0.073200 -2920.085594 -2575.152311   819.218118  3176.921954  1723.393333 -1776.244470
0.074400 -3147.386462  -736.701978  2586.685644  2816.838023  -374.701198 -3171.823560
0.075600 -2145.792854  1557.990445  3437.005646  1080.462472 -2693.255100 -3174.877945
0.076800   311.836828  3459.562979  2313.878303 -1739.635823 -3656.489096 -1006.732973
0.078000  2924.500503  3194.050914  -533.928321 -3551.656908 -2118.648644  1895.032323
0.079200  3491.820561   768.719155 -2845.437771 -2905.247632   583.804772  3269.309596
0.080400  1908.919489 -1718.091113 -3161.014023  -785.320308  2465.105223  2713.014452
0.081600  -290.183444 -2916.643676 -2018.909139  1302.270359  3039.935603  1119.745649
0.082800 -2151.619587 -2861.963404  -125.180975  2840.971407  2387.482886 -1043.456190
0.084000 -3266.185741 -1481.130595  2179.009945  3197.753961   243.513279 -3084.045004
0.085200 -2611.335686  1156.147594  3518.794269  1473.864658 -2428.184136 -3279.369750
0.086400   -27.962900  3224.551659  2433.170893 -1362.472177 -3396.684870 -1199.466073
0.087600  2410.010444  2967.680757  -101.600766 -2935.730613 -2142.318439  1189.210888
0.088800  2990.301077  1173.913063 -1983.870658 -2721.344754  -217.339525  2519.678014
0.090000  2250.572076  -711.360707 -2841.215136 -1565.192078  1628.792467  2918.349730
0.091200   668.973360 -2471.521164 -2650.320224   474.508860  3106.170306  1904.466762
0.092400 -1721.009252 -3250.985558  -726.203449  2745.837153  2812.851561  -652.177331
0.093600 -3320.435335 -1818.290050  1961.852569  3243.407605   481.878120 -2822.092257
0.094800 -2574.375700   820.132862  3123.409630  1563.064715 -1868.322171 -2926.840055
0.096000  -402.533304  2516.214042  2324.886866  -627.911789 -2755.226829 -1556.240720
0.097200  1478.645220  2717.682500   687.029721 -2169.544802 -2414.430510   244.237533
0.098400  2620.122661  1857.920567 -1182.806155 -2850.665367 -1048.321846  2104.059207
0.099600  2720.402507   -39.750639 -2802.593682 -2124.423652  1227.932664  3101.847245
0.100800  1125.904995 -2299.271523 -2876.493969   165.183343  2999.153130  2070.215804
0.102000 -1441.275972 -3123.320850  -901.633425  2399.600961  2675.402789  -356.050813
0.103200 -2872.688989 -1797.462937  1430.222839  2814.053541   745.342401 -2145.956886
0.104400 -2369.204803   237.206311  2478.145986  1715.288359 -1068.428164 -2546.520439
0.105600  -982.068428  1750.702798  2394.746716   164.383584 -2295.291484 -2017.524963
0.106800   730.893248  2665.093319  1367.688517 -1683.214536 -2725.056069  -371.284057
0.108000  2508.823373  2301.678040  -808.845808 -2955.959992 -1411.640638  1924.464176
