##TITLE=1D-13C-1-2-5-328-110-"no"-"yes"
##JCAMP-DX=5.01 $$ Magritek Spinsolve SPA1903 2.0.4.4423
##DATA TYPE=NMR FID
##DATA CLASS=NTUPLES
##ORIGIN=SPA1903 at Magritek
##OWNER=Copyright (C) 2025 by Magritek
##LONGDATE=2025/03/17 11:58:33.040
##.OBSERVE FREQUENCY=15.4860999900848
##.OBSERVE NUCLEUS=^13C
##.DELAY=( 20,  2000)
##.ACQUISITION MODE=SIMULTANEOUS
##.FIELD= 1.5
##.AVERAGES= 1
##.DIGITISER RES=16
##.SHIFT REFERENCE=(INTERNAL, Water, 4096, 0)
##$REFERENCE_POINT= 796.529    $$ Referencing label
$$      Distance of the zero axis position (in Hz) from the last data
$$      point (right edge); positive values -> right edge is below 0 Hz
##SPECTROMETER/DATA SYSTEM=Magritek
##SAMPLE DESCRIPTION=solvent=Water
$$ Bruker specific parameters
$$ --------------------------
##$AUNMP=   <proc_1d_nosref>
##$INSTRUM= <Magritek>
##$SI=      8192
##$TD=      8192
##$TDeff=   8192
##$SW=      322.870200
##$BF1=     15.4860999900848
##$SF=      15.4843965190859
##$LB=      0
##$PHC0=    217.2
##$PHC1=    0.0
##$REVERSE= yes
$$ End of Bruker specific parameters
$$ ---------------------------------
##NTUPLES=NMR FID
##VAR_NAME=        TIME,            FID/REAL,            FID/IMAG, PAGE NUMBER
##SYMBOL=             X,                   R,                   I,           N
##VAR_TYPE= INDEPENDENT,           DEPENDENT,           DEPENDENT,        PAGE
##VAR_FORM=        AFFN,                AFFN,                AFFN,        AFFN
##VAR_DIM=         8192,                8192,                8192,           2
##UNITS=        SECONDS,     ARBITRARY UNITS,     ARBITRARY UNITS,            
##FIRST=              0,                   0,                   0,           1
##LAST=    1.638199e+00,  0.0852234525365822,  0.0449011212292581,           2
##MIN=                0,   -5645.54433321724,   -5449.83279527287,           1
##MAX=     1.638199e+00,    5460.14412709371,    5875.25119203308,           2
##FACTOR=             1,                   1,                   1,           1
##PAGE=N=1
##DATA TABLE=(X++(R..R)), XYDATA
0.000000     0.000000  2346.108222 -4295.750250 -5466.765174   253.101803  5460.144127
0.001200  3898.775020 -2419.341309 -5645.544333 -1896.270481  4057.832678  4921.173305
0.002400  -172.271407 -4907.905802 -3647.080027  1949.906561  5116.168180  2113.548124
0.003600 -3399.144160 -4786.727077  -413.973594  4462.324095  3970.927840 -1334.361414
0.004800 -5089.355335 -2685.362054  3063.233299  5149.624163   903.131748 -4550.367001
0.006000 -4445.374410  1186.695330  5422.545196  2962.596194 -3230.286865 -5457.294969
0.007200  -886.621486  4809.795468  4520.039769 -1399.874206 -5556.904122 -2784.779846
0.008400  3413.280203  5308.527272   635.039114 -4729.255388 -4196.986985  1468.121146
0.009600  5218.274361  2529.778939 -3167.795267 -4888.286353  -651.408344  4269.276912
0.010800  3940.801181 -1101.617592 -4732.651907 -2638.789543  2607.899180  4690.470687
0.012000  1103.528750 -3810.607236 -4129.016723   546.971087  4602.164829  3108.564494
0.013200 -2218.141099 -4940.219659 -1606.416916  3795.059167  4585.588927  -318.991171
0.014400 -4904.780709 -3441.837581  2340.832134  5279.013819  1643.238469 -4091.592662
0.015600 -4717.481544   566.313633  5107.213780  3246.919920 -2602.740758 -5143.180099
0.016800 -1306.822095  4065.463274  4332.713501  -709.143857 -4747.959186 -2902.667084
0.018000  2383.992205  4640.673656  1276.395195 -3528.260179 -4024.030934   291.315016
0.019200  4213.675637  3047.744923 -1778.687441 -4455.128493 -1778.553783  3068.910492
0.020400  4267.613361   275.702044 -4147.691705 -3560.278530  1449.025335  4777.706091
0.021600  2223.983191 -3151.492044 -4690.544491  -396.784856  4461.586820  3798.789005
0.022800 -1624.047229 -5054.581756 -2167.952659  3426.219889  4728.101456   148.739194
0.024000 -4560.653641 -3559.565534  1814.066569  4863.835503  1894.754283 -3319.638109
0.025200 -4374.063049   -79.545306  4208.736930  3293.071519 -1574.316987 -4438.278414
0.026400 -1908.230038  2861.808828  4121.397594   423.636162 -3762.127903 -3398.866652
0.027600  1065.253567  4245.217364  2294.513186 -2451.560951 -4271.117045  -909.820080
0.028800  3627.047594  3795.953688  -735.799236 -4460.920813 -2711.685623  2444.234156
0.030000  4632.120840  1079.444399 -3871.082651 -4060.550763   831.615815  4729.889979
0.031200  2720.927938 -2698.637395 -4716.666028  -839.588653  4028.210231  3843.268633
0.032400 -1071.814075 -4574.225523 -2389.127745  2683.132884  4341.754157   667.886487
0.033600 -3696.075928 -3466.787908   905.944459  4066.594102  2297.663119 -2180.494968
0.034800 -3985.763684  -995.680284  3165.387167  3510.759414  -353.476989 -3814.073258
0.036000 -2709.039479  1712.929615  4140.922387  1535.123324 -3041.825858 -3956.291262
0.037200    39.802623  4070.973682  3097.683655 -1770.636615 -4506.501271 -1632.908134
0.038400  3331.920175  4153.479500  -231.380562 -4321.345845 -2995.173494  2043.344795
0.039600  4475.871505  1325.500348 -3405.577952 -3850.268760   442.800875  4081.240986
0.040800  2654.859407 -1960.667171 -4069.384728 -1205.512688  3031.861350  3512.410778
0.042000  -231.999262 -3612.209141 -2622.700193  1495.820750  3792.024188  1514.644921
0.043200 -2589.699828 -3575.489144  -233.413444  3420.306295  2949.797532 -1129.228304
0.044400 -3903.589595 -1928.250077  2482.051810  3907.306167   498.744075 -3592.205919
0.045600 -3263.493669  1147.560398  4177.183581  2034.062423 -2670.919604 -4081.174206
0.046800  -380.026141  3806.423781  3219.618222 -1372.437668 -4202.970627 -1795.157327
0.048000  2778.695792  3855.032391   176.742948 -3648.043176 -2912.226445  1362.881360
0.049200  3848.298344  1609.865319 -2479.352687 -3488.412879  -302.517684  3181.832958
0.050400  2807.749695  -915.493348 -3511.902719 -1876.280207  2001.491966  3484.985223
0.051600   783.881619 -2912.872914 -3141.384244   481.306936  3614.802431  2349.906032
0.052800 -1871.468716 -3869.755467 -1078.755353  3127.774486  3498.775929  -510.429190
0.054000 -3946.884901 -2457.439886  2136.510357  4061.669628   901.238956 -3375.147919
0.055200 -3400.430929   791.650318  3931.011069  2160.171993 -2225.969886 -3773.221124
0.056400  -671.643410  3155.918238  3050.219671  -725.041553 -3515.685764 -2009.606848
0.057600  1853.588606  3424.243063   883.332280 -2679.537213 -3010.515894   270.271653
0.058800  3231.184092  2312.866617 -1420.018827 -3474.602544 -1322.399289  2484.669906
0.060000  3332.985400    87.552772 -3354.750621 -2705.652689  1339.239900  3786.008405
0.061200  1543.090954 -2659.051425 -3589.669170   -49.461726  3595.327944  2769.077613
0.062400 -1532.448598 -3915.454210 -1396.676521  2829.723109  3490.820487  -167.327167
0.063600 -3553.237149 -2512.198098  1592.711543  3672.459065  1216.668171 -2658.735780
0.064800 -3186.717055   155.181162  3202.084502  2330.617071 -1302.170209 -3313.548432
0.066000 -1327.915183  2221.026603  3071.037849   227.474349 -2877.892127 -2527.541463
0.067200   868.009647  3263.660967  1731.845752 -1957.017409 -3334.608404  -618.541578
0.068400  2935.703732  2914.080861  -742.338178 -3553.290669 -1972.787128  2111.635640
0.069600  3620.181763   592.194628 -3213.539717 -2991.792003   981.987285  3706.326927
0.070800  1786.871291 -2331.905322 -3493.866915  -313.720537  3184.842564  2684.744357
0.072000 -1083.445986 -3409.930984 -1525.203782  2139.267988  3108.458100   322.891950
0.073200 -2760.138712 -2471.804333   751.468856  3024.849251  1667.930215 -1669.483738
0.074400 -3008.073810  -732.504225  2448.146941  2697.638140  -329.523890 -3022.436733
0.075600 -2069.546172  1466.656892  3280.168024  1053.994841 -2552.746156 -3042.907379
0.076800   272.080649  3296.428307  2227.306319 -1640.504927 -3491.721567  -983.802783
0.078000  2770.117001  3052.045496  -482.728844 -3376.400448 -2035.987155  1783.093163
0.079200  3334.052563   765.661162 -2689.735822 -2784.007795   525.517442  3107.150362
0.080400  1841.097258 -1603.003118 -3017.185478  -780.610877  2335.540671  2606.524210
0.081600  -242.674835 -2773.355123 -1949.765422  1213.414587  2909.103205  1106.346060
0.082800 -2033.736069 -2753.441308  -145.480069  2704.737340  2300.006738  -968.366023
0.084000 -3119.778663 -1441.905961  2066.642313  3071.052496   253.571781 -2937.384195
0.085200 -2512.424358  1076.135471  3357.522073  1429.698897 -2295.116332 -3141.759819
0.086400   -57.386290  3064.794017  2337.831468 -1272.660744 -3240.694455 -1173.184298
0.087600  2276.902934  2844.213246   -61.115556 -2793.082860 -2071.679544  1103.496935
0.088800  2856.460552  1159.575709 -1867.688260 -2611.975396  -242.354862  2392.083494
0.090000  2167.484494  -650.950378 -2720.095441 -1528.271486  1537.644391  2805.209575
0.091200   669.874537 -2356.391101 -2548.670848   434.532962  2966.494860  1844.701346
0.092400 -1624.661161 -3121.918773  -720.761997  2611.672723  2701.035044  -596.929750
0.093600 -3166.126619 -1760.425370  1845.558888  3107.942410   488.106527 -2671.725185
0.094800 -2473.158938   751.875512  2981.388361  1517.721971 -1753.308130 -2798.439329
0.096000  -420.513376  2385.165130  2244.651267  -566.776888 -2629.586433 -1519.163482
0.097200  1386.822349  2610.009914   695.088496 -2054.850196 -2334.978071   200.863102
0.098400  2509.589307  1808.046687 -1107.957094 -2740.487915 -1030.086777  2005.796947
0.099600  2621.051390   -13.777732 -2679.808110 -2052.040263  1150.049519  2978.222604
0.100800  1104.342355 -2187.058725 -2771.426032   125.871635  2866.619273  2000.934613
0.102000 -1350.061046 -2990.674800  -892.109930  2277.702851  2568.798125  -307.853801
0.103200 -2735.878869 -1744.805611  1342.327696  2697.580647   750.984230 -2028.792919
0.104400 -2290.760096   189.672477  2367.796702  1679.938661  -993.393323 -2446.371904
0.105600  -971.903162  1660.983539  2313.283467   190.561212 -2195.738585 -1965.799333
0.106800   678.959417  2567.695931  1337.975378 -1596.033784 -2628.930445  -386.133667
0.108000  2397.417758  2230.305539  -751.048511 -2838.446518 -1381.319694  1832.998356
