##TITLE=1D-13C-1-2-5-328-110-"no"-"yes"
##JCAMP-DX=5.01 $$ Magritek Spinsolve SPA1903 2.0.4.4423
##DATA TYPE=NMR FID
##DATA CLASS=NTUPLES
##ORIGIN=SPA1903 at Magritek
##OWNER=Copyright (C) 2025 by Magritek
##LONGDATE=2025/03/17 11:59:59.631
##.OBSERVE FREQUENCY=15.4860999900848
##.OBSERVE NUCLEUS=^13C
##.DELAY=( 20,  2000)
##.ACQUISITION MODE=SIMULTANEOUS
##.FIELD= 1.5
##.AVERAGES= 1
##.DIGITISER RES=16
##.SHIFT REFERENCE=(INTERNAL, Water, 4096, 0)
##$REFERENCE_POINT= 796.529    $$ Referencing label
$$      Distance of the zero axis position (in Hz) from the last data
$$      point (right edge); positive values -> right edge is below 0 Hz
##SPECTROMETER/DATA SYSTEM=Magritek
##SAMPLE DESCRIPTION=solvent=Water
$$ Bruker specific parameters
$$ --------------------------
##$AUNMP=   <proc_1d_nosref>
##$INSTRUM= <Magritek>
##$SI=      8192
##$TD=      8192
##$TDeff=   8192
##$SW=      322.870200
##$BF1=     15.4860999900848
##$SF=      15.4843965190859
##$LB=      0
##$PHC0=    216.8
##$PHC1=    0.0
##$REVERSE= yes
$$ End of Bruker specific parameters
$$ ---------------------------------
##NTUPLES=NMR FID
##VAR_NAME=        TIME,            FID/REAL,            FID/IMAG, PAGE NUMBER
##SYMBOL=             X,                   R,                   I,           N
##VAR_TYPE= INDEPENDENT,           DEPENDENT,           DEPENDENT,        PAGE
##VAR_FORM=        AFFN,                AFFN,                AFFN,        AFFN
##VAR_DIM=         8192,                8192,                8192,           2
##UNITS=        SECONDS,     ARBITRARY UNITS,     ARBITRARY UNITS,            
##FIRST=              0,                   0,                   0,           1
##LAST=    1.638199e+00,   -0.66268538456426,   0.357667320552229,           2
##MIN=                0,   -2696.95727859351,   -2645.78017552762,           1
##MAX=     1.638199e+00,    2619.18827444208,    2807.26706267649,           2
##FACTOR=             1,                   1,                   1,           1
##PAGE=N=1
##DATA TABLE=(X++(R..R)), XYDATA
0.000000     0.000000  1128.592628 -2044.535520 -2620.698390   105.700764  2609.211082
0.001200  1876.804402 -1158.462630 -2696.957279  -910.714632  1932.030984  2357.574950
0.002400   -70.930548 -2344.445996 -1754.674496   921.462918  2447.403480  1014.236464
0.003600 -1616.380466 -2294.784059  -216.835932  2134.221622  1918.945049  -620.044915
0.004800 -2438.101495 -1311.666108  1449.576484  2484.361415   466.253226 -2174.845380
0.006000 -2169.944918   539.373042  2619.188274  1461.769760 -1534.110159 -2647.660651
0.007200  -461.978869  2310.852177  2208.630950  -649.773706 -2685.554193 -1378.351367
0.008400  1623.117028  2583.909342   343.469929 -2280.767735 -2051.646356   686.502721
0.009600  2529.552209  1252.204375 -1513.225889 -2378.918877  -350.196363  2053.303697
0.010800  1932.075463  -498.953148 -2291.570197 -1313.717493  1230.843892  2280.326062
0.012000   583.993761 -1822.198918 -2035.552320   213.435576  2232.292608  1557.928947
0.013200 -1043.675411 -2411.853966  -829.522885  1821.169777  2271.608208  -103.272076
0.014400 -2395.820256 -1726.011836  1106.937322  2592.304046   849.797712 -1975.477236
0.015600 -2333.324709   223.108842  2485.293443  1632.346144 -1233.102530 -2531.254990
0.016800  -692.585657  1963.694446  2150.184700  -293.972215 -2311.363589 -1469.470959
0.018000  1119.622607  2285.412695   685.409918 -1697.547734 -2005.244239    91.694827
0.019200  2051.794757  1544.182890  -812.360152 -2198.612669  -940.415818  1468.808058
0.020400  2133.878103   200.907611 -2021.490452 -1801.631209   656.263685  2361.057884
0.021600  1166.071406 -1505.976837 -2346.763577  -267.851960  2178.804468  1922.979404
0.022800  -747.182137 -2499.248940 -1136.413470  1644.467576  2366.343475   143.894957
0.024000 -2226.067375 -1813.152314   832.099109  2409.097320  1010.380644 -1591.287097
0.025200 -2189.100175  -114.346064  2050.197409  1686.026110  -704.270173 -2193.951149
0.026400 -1018.665633  1360.587078  2066.634556   288.113502 -1827.874756 -1738.563538
0.027600   448.769908  2106.768555  1221.453473 -1149.105987 -2158.057908  -538.613050
0.028800  1772.550059  1951.001116  -280.803306 -2211.581995 -1429.901237  1152.378894
0.030000  2346.126177   626.160079 -1899.311054 -2076.503997   340.226459  2349.671357
0.031200  1423.994963 -1282.837184 -2375.259196  -502.929773  1970.405943  1975.834987
0.032400  -455.315206 -2278.836739 -1269.400517  1266.331474  2185.532562   426.897097
0.033600 -1795.643105 -1790.579043   359.641400  2022.528441  1237.234280 -1012.161121
0.034800 -2021.731531  -605.640343  1530.081189  1826.897143   -81.214330 -1907.157992
0.036000 -1449.799001   780.005960  2107.789845   871.837823 -1482.720644 -2051.746809
0.037200   -79.578134  2033.228567  1649.864314  -814.737795 -2295.285625  -917.699085
0.038400  1618.419908  2148.258502   -18.235623 -2157.775412 -1594.899208   943.572343
0.039600  2277.774885   772.458926 -1661.456778 -2002.191288   118.887076  2038.835006
0.040800  1427.567872  -899.682395 -2075.169155  -721.458781  1465.286613  1838.849527
0.042000     4.339397 -1800.295504 -1422.572201   657.495323  1937.575003   890.428114
0.043200 -1239.699787 -1879.598700  -239.036171  1711.001736  1598.504047  -474.564197
0.044400 -2001.533481 -1096.864754  1192.226049  2052.033210   370.594898 -1808.534067
0.045600 -1766.634332   479.262338  2152.964410  1151.891896 -1291.778113 -2138.759524
0.046800  -311.536923  1900.979015  1731.525953  -587.667074 -2150.222437 -1025.164118
0.048000  1338.064037  2016.565754   209.878986 -1816.053760 -1572.660541   567.945705
0.049200  1967.607499   954.057766 -1175.093516 -1838.860160  -294.039979  1574.937292
0.050400  1536.659504  -343.430992 -1800.474779 -1094.367371   930.689944  1850.262865
0.051600   538.257781 -1451.869341 -1715.418403   128.852911  1862.913729  1325.386942
0.052800  -873.382723 -2044.547065  -686.525065  1560.223485  1891.792797  -147.740107
0.054000 -2027.911445 -1376.796742  1002.430843  2130.808059   591.282448 -1674.807768
0.055200 -1831.166119   277.609234  2010.018356  1233.281824 -1036.328994 -1974.534041
0.056400  -486.815144  1545.527270  1652.563887  -229.799918 -1790.390977 -1167.561890
0.057600   837.668833  1808.651417   605.638970 -1309.494336 -1646.980330    -8.344477
0.058800  1648.152537  1328.484637  -614.138147 -1841.614551  -831.440562  1218.795434
0.060000  1814.295910   179.788591 -1716.902475 -1518.419400   584.387082  2003.023038
0.061200   938.330386 -1306.860040 -1943.877303  -157.810170  1841.611598  1549.442184
0.062400  -674.608451 -2050.090751  -864.587372  1384.065917  1887.341088    57.012615
0.063600 -1804.997866 -1423.819357   700.825662  1918.748256   767.814620 -1284.376768
0.064800 -1728.185372   -81.794048  1621.775167  1344.814899  -541.866291 -1744.211483
0.066000  -848.403718  1056.982238  1684.015740   285.034098 -1459.076259 -1454.326815
0.067200   312.211396  1730.006254  1059.988061  -929.249492 -1825.110910  -475.344993
0.068400  1497.166270  1647.275689  -255.474257 -1877.409446 -1178.251305  1013.676086
0.069600  1961.476892   456.919033 -1629.298329 -1673.992033   376.762898  1943.275732
0.070800  1078.138884 -1110.631857 -1884.137922  -322.401161  1597.664831  1516.361816
0.072000  -410.958733 -1775.644742  -955.951693   992.042705  1696.871790   347.251561
0.073200 -1378.177550 -1424.499517   224.957066  1589.708370  1042.357610  -754.158871
0.074400 -1656.735362  -565.633376  1224.624526  1556.660083   -12.118416 -1602.304703
0.075600 -1255.363390   657.314118  1801.530023   720.507268 -1285.294032 -1721.825282
0.076800   -11.549120  1737.883899  1327.364810  -745.642945 -1895.080994  -682.729239
0.078000  1386.878050  1715.816710   -93.386693 -1761.936319 -1230.207719   806.143048
0.079200  1814.717459   582.759276 -1332.718577 -1572.089317   103.510189  1618.223202
0.080400  1140.610881  -692.630756 -1645.566647  -605.519336  1142.736379  1493.985435
0.081600    53.490220 -1442.608491 -1197.881528   483.369248  1594.917131   783.347577
0.082800  -992.047691 -1583.048953  -249.775761  1423.127774  1380.821422  -370.551032
0.084000 -1702.265017  -938.090411  1013.247044  1735.157522   297.122431 -1539.768723
0.085200 -1474.248515   439.206982  1818.949974   922.836360 -1121.430967 -1753.592308
0.086400  -198.413242  1587.628393  1383.501378  -520.953880 -1739.997150  -797.323094
0.087600  1090.755428  1596.959709   156.723270 -1428.626533 -1254.140796   413.758650
0.088800  1544.625811   811.058775  -870.598149 -1496.130651  -331.142679  1228.228907
0.090000  1317.378111  -177.553808 -1484.362966 -1010.736994   714.012730  1600.799180
0.091200   537.093160 -1218.511815 -1511.687340    78.285569  1610.384146  1156.535390
0.092400  -758.407162 -1749.929436  -557.735660  1340.915274  1571.691920  -168.909374
0.093600 -1693.455324 -1102.599523   857.805653  1722.841166   440.917063 -1356.169886
0.094800 -1452.197045   225.927352  1588.378902   982.704815  -797.676517 -1564.074232
0.096000  -421.495227  1198.941775  1343.691252  -114.666555 -1409.160322 -1001.583202
0.097200   601.684658  1478.105592   577.310266 -1028.637211 -1397.291528   -74.986141
0.098400  1353.271682  1154.312658  -465.377183 -1548.456937  -743.896068  1007.028468
0.099600  1546.719517   167.589139 -1444.814238 -1277.661465   491.920318  1671.908994
0.100800   773.236528 -1098.467501 -1607.615319  -101.540984  1522.073402  1239.992973
0.102000  -581.362372 -1658.143246  -662.669309  1127.862973  1496.954836    21.764384
0.103200 -1438.635830 -1108.828600   551.179642  1493.800630   614.297914  -979.879439
0.104400 -1361.508053  -107.267526  1254.527913  1102.166375  -358.215245 -1384.848883
0.105600  -748.245693   795.264228  1396.009831   310.436741 -1174.564748 -1256.047373
0.106800   208.693748  1452.571721   924.053693  -773.790140 -1549.979291  -397.713035
0.108000  1277.510968  1376.411884  -258.131307 -1582.803631  -931.085056   889.432424
