##TITLE=1D-13C-1-5-5-328-110-"no"-"yes"
##JCAMP-DX=5.01 $$ Magritek Spinsolve SPA1903 2.0.4.4423
##DATA TYPE=NMR FID
##DATA CLASS=NTUPLES
##ORIGIN=SPA1903 at Magritek
##OWNER=Copyright (C) 2025 by Magritek
##LONGDATE=2025/02/12 14:30:39.010
##.OBSERVE FREQUENCY=15.4861775226891
##.OBSERVE NUCLEUS=^13C
##.DELAY=( 20,  5000)
##.ACQUISITION MODE=SIMULTANEOUS
##.FIELD= 1.5
##.AVERAGES= 1
##.DIGITISER RES=16
##.SHIFT REFERENCE=(INTERNAL, Water, 4096, 0)
##$REFERENCE_POINT= 796.520    $$ Referencing label
$$      Distance of the zero axis position (in Hz) from the last data
$$      point (right edge); positive values -> right edge is below 0 Hz
##SPECTROMETER/DATA SYSTEM=Magritek
##SAMPLE DESCRIPTION=solvent=Water
$$ Bruker specific parameters
$$ --------------------------
##$AUNMP=   <proc_1d_nosref>
##$INSTRUM= <Magritek>
##$SI=      8192
##$TD=      8192
##$TDeff=   8192
##$SW=      322.868600
##$BF1=     15.4861775226891
##$SF=      15.4844740431616
##$LB=      0
##$PHC0=    217.4
##$PHC1=    0.0
##$REVERSE= yes
$$ End of Bruker specific parameters
$$ ---------------------------------
##NTUPLES=NMR FID
##VAR_NAME=        TIME,            FID/REAL,            FID/IMAG, PAGE NUMBER
##SYMBOL=             X,                   R,                   I,           N
##VAR_TYPE= INDEPENDENT,           DEPENDENT,           DEPENDENT,        PAGE
##VAR_FORM=        AFFN,                AFFN,                AFFN,        AFFN
##VAR_DIM=         8192,                8192,                8192,           2
##UNITS=        SECONDS,     ARBITRARY UNITS,     ARBITRARY UNITS,            
##FIRST=              0,                   0,                   0,           1
##LAST=    1.638199e+00,  -0.103064148066272,  0.0568222817582076,           2
##MIN=                0,   -595.153095726687,   -575.475560910757,           1
##MAX=     1.638199e+00,    566.816224549244,    613.943585891086,           2
##FACTOR=             1,                   1,                   1,           1
##PAGE=N=1
##DATA TABLE=(X++(R..R)), XYDATA
0.000000     0.000000   249.976725  -444.006554  -572.423080    14.857687   563.927548
0.001200   418.581825  -237.721360  -595.153096  -218.847803   417.963237   531.220342
0.002400    -2.080181  -515.634196  -400.082060   193.993579   549.930712   242.848006
0.003600  -354.834738  -519.454988   -52.284805   473.985727   429.132820  -137.567444
0.004800  -541.598673  -294.941335   316.873189   548.132108   105.695602  -474.449071
0.006000  -476.365157   111.716023   566.816225   325.455747  -322.462189  -576.557767
0.007200  -116.679683   488.047318   490.676220  -113.251836  -575.639820  -322.549908
0.008400   328.809853   566.390663   106.230808  -480.059497  -472.917117   113.865345
0.009600   550.401954   308.334375  -304.114569  -540.425163  -116.639626   439.100434
0.010800   451.526985   -80.028721  -512.543213  -324.005802   254.381143   523.347301
0.012000   154.660429  -401.009818  -467.010617    28.111707   492.149600   361.987523
0.013200  -215.222276  -535.906484  -204.210086   390.045938   507.326738    -2.450717
0.014400  -513.705926  -394.673938   216.326000   562.639312   212.142335  -405.585108
0.015600  -520.489759    12.129846   526.461499   385.324771  -228.112152  -554.009238
0.016800  -193.880015   398.237872   494.018907   -15.964985  -497.781286  -363.948807
0.018000   206.305039   515.264257   198.593092  -352.960518  -473.478453   -26.062450
0.019200   450.938922   380.495995  -149.778963  -497.571139  -240.510506   306.632300
0.020400   484.159759    74.110357  -437.730286  -420.186251   114.532766   515.649940
0.021600   283.883674  -305.091128  -522.503446   -95.836265   453.084730   442.584552
0.022800  -116.609495  -535.450807  -292.149629   314.457423   528.128473    86.380777
0.024000  -458.700550  -434.952570   122.604125   521.002629   276.938086  -303.638347
0.025200  -504.541598   -87.843605   428.720112   419.541069   -96.714141  -485.940493
0.026400  -284.706962   259.565427   482.851132   122.772125  -387.100677  -426.822719
0.027600    51.840811   470.140591   317.596309  -223.151458  -490.341443  -162.390768
0.028800   372.563960   457.612143   -21.694176  -479.240559  -349.512764   214.880847
0.030000   516.755674   182.317121  -381.609045  -475.648601    15.730416   492.521471
0.031200   356.911966  -224.048165  -522.627387  -171.043750   384.682889   462.368556
0.032400   -23.502617  -474.067422  -340.283632   211.005358   493.189688   169.552367
0.033600  -351.136789  -435.844433     4.365173   427.414589   333.246858  -162.459999
0.034800  -463.150649  -203.276247   303.188285   442.518088    47.591779  -406.184910
0.036000  -368.504001   118.312810   472.868814   252.197027  -285.013420  -476.529613
0.037200   -79.284107   423.173288   405.354284  -117.674963  -500.603106  -265.978348
0.038400   302.178878   495.789086    70.201883  -440.481049  -399.440167   134.384299
0.039600   497.187388   242.749106  -303.962804  -469.788368   -59.517026   415.734304
0.040800   374.704603  -123.237937  -459.592952  -235.210088   267.875396   438.582642
0.042000    76.578186  -368.713151  -369.917769    73.491172   430.202604   263.011427
0.043200  -222.714614  -442.413258  -122.480508   347.722224   395.569078   -36.722499
0.044400  -429.301634  -301.050658   203.490656   466.479873   155.192999  -354.443405
0.045600  -426.706661    28.281206   448.540629   318.617933  -209.213528  -480.891845
0.046800  -155.142327   362.341167   426.341066   -40.580050  -449.310259  -302.544452
0.048000   211.622122   462.939093   145.251974  -347.329522  -405.242195    33.448605
0.049200   422.516346   292.542901  -184.892555  -427.809060  -154.783372   303.762671
0.050400   395.109413     6.138166  -388.806332  -313.405584   140.122340   424.546606
0.051600   197.872384  -272.493911  -417.411847   -48.901510   384.910456   352.631058
0.052800  -118.753051  -449.948939  -227.640643   282.266344   448.960461    60.062942
0.054000  -410.308048  -370.609541   131.468574   468.830997   224.652086  -296.969411
0.055200  -444.864540   -39.619742   405.545241   348.281825  -134.142364  -442.943310
0.056400  -205.480162   277.372129   414.995682    48.754769  -367.555051  -334.514961
0.057600   100.523623   407.791948   222.515611  -228.188811  -402.681424   -90.643343
0.058800   332.456959   354.962212   -53.307037  -401.478513  -263.479182   200.205639
0.060000   425.542464   130.605804  -331.017971  -389.335807    35.820153   422.185351
0.061200   287.797463  -204.208407  -447.782931  -137.687395   344.586408   401.604790
0.062400   -38.520351  -431.354130  -284.130458   211.043660   441.362498   127.692613
0.063600  -338.650757  -386.206722    39.475320   412.845090   275.185122  -191.563225
0.064800  -416.886386  -132.192861   307.903976   369.048401   -14.335330  -376.915146
0.066000  -281.131483   155.837837   404.437894   160.108771  -276.734734  -377.264679
0.067200   -24.137751   365.002242   312.631452  -126.317133  -414.030503  -194.155080
0.068400   268.898643   406.297121    41.523483  -378.368625  -331.103868   126.057371
0.069600   431.479647   201.250957  -279.850228  -413.480660   -34.312218   384.894394
0.070800   325.180191  -131.930865  -419.453901  -189.114570   272.217176   393.060183
0.072000    31.790271  -359.613174  -306.723697   118.624508   388.168145   191.358002
0.073200  -233.243261  -372.200102   -62.071350   320.417048   316.181184   -71.617914
0.074400  -375.047722  -223.516634   201.336079   384.765174   100.426223  -310.805702
0.075600  -349.931984    43.269239   393.111532   258.844831  -198.890136  -412.772715
0.076800  -113.691091   328.543222   363.137348   -48.546767  -404.945271  -258.682626
0.078000   209.668662   414.505277   103.223036  -331.021695  -349.862446    58.622083
0.079200   385.646259   239.579320  -196.756592  -389.297848  -104.484023   302.558550
0.080400   331.554523   -39.648957  -355.580416  -242.867385   160.216479   369.070281
0.081600   128.655330  -267.503847  -339.495424     2.347450   341.602849   269.187316
0.082800  -130.915996  -378.017107  -164.240883   254.581857   367.544334    26.538891
0.084000  -349.864186  -296.853477   122.658451   395.858154   180.280089  -260.995414
0.085200  -380.539397   -29.658513   360.393298   302.574972  -129.924246  -398.079726
0.086400  -172.466530   264.635574   369.880779    23.180883  -344.624303  -286.392483
0.087600   123.171147   375.160389   165.928823  -238.339789  -346.255562   -34.699864
0.088800   313.482799   282.585903   -85.552761  -350.305832  -192.387666   198.202361
0.090000   350.925467    77.077869  -292.667256  -310.167127    51.010550   355.532218
0.091200   228.122640  -183.740521  -378.038391  -104.219269   303.341083   338.236934
0.092400   -47.117004  -377.887110  -239.653055   198.029289   389.497552    99.551419
0.093600  -312.650504  -335.811565    59.818652   374.394689   220.910133  -198.044889
0.094800  -366.383520   -87.505439   293.448403   312.935036   -50.108585  -344.124744
0.096000  -215.168811   169.732453   343.350348   103.897765  -258.398422  -306.573355
0.097200    13.327322   317.965525   239.258860  -130.767993  -344.166949  -140.033062
0.098400   236.690533   328.309881    20.348170  -321.058770  -272.376764   114.722351
0.099600   362.088495   163.306353  -239.358369  -350.027718   -27.371959   333.244511
0.100800   282.008016  -122.685838  -374.519604  -162.250613   251.843236   349.054166
0.102000    15.194550  -330.456162  -265.825168   123.527709   356.944985   150.988843
0.103200  -238.587095  -327.718524   -17.748760   305.968048   255.154676  -102.161489
0.104400  -331.086328  -159.008939   202.259512   315.589894    48.749646  -279.097326
0.105600  -267.386574    68.806227   324.298740   187.028681  -179.868319  -330.318077
0.106800   -78.740371   272.687081   293.839051   -51.586018  -340.565773  -208.205577
0.108000   183.024784   352.876133    84.862452  -290.154768  -304.617268    61.080729
