##TITLE=1D-13C-1-2-5-328-110-"no"-"yes"
##JCAMP-DX=5.01 $$ Magritek Spinsolve SPA1903 2.0.4.4423
##DATA TYPE=NMR FID
##DATA CLASS=NTUPLES
##ORIGIN=SPA1903 at Magritek
##OWNER=Copyright (C) 2025 by Magritek
##LONGDATE=2025/03/17 11:58:40.759
##.OBSERVE FREQUENCY=15.4860999900848
##.OBSERVE NUCLEUS=^13C
##.DELAY=( 20,  2000)
##.ACQUISITION MODE=SIMULTANEOUS
##.FIELD= 1.5
##.AVERAGES= 1
##.DIGITISER RES=16
##.SHIFT REFERENCE=(INTERNAL, Water, 4096, 0)
##$REFERENCE_POINT= 796.529    $$ Referencing label
$$      Distance of the zero axis position (in Hz) from the last data
$$      point (right edge); positive values -> right edge is below 0 Hz
##SPECTROMETER/DATA SYSTEM=Magritek
##SAMPLE DESCRIPTION=solvent=Water
$$ Bruker specific parameters
$$ --------------------------
##$AUNMP=   <proc_1d_nosref>
##$INSTRUM= <Magritek>
##$SI=      8192
##$TD=      8192
##$TDeff=   8192
##$SW=      322.870200
##$BF1=     15.4860999900848
##$SF=      15.4843965190859
##$LB=      0
##$PHC0=    216.9
##$PHC1=    0.0
##$REVERSE= yes
$$ End of Bruker specific parameters
$$ ---------------------------------
##NTUPLES=NMR FID
##VAR_NAME=        TIME,            FID/REAL,            FID/IMAG, PAGE NUMBER
##SYMBOL=             X,                   R,                   I,           N
##VAR_TYPE= INDEPENDENT,           DEPENDENT,           DEPENDENT,        PAGE
##VAR_FORM=        AFFN,                AFFN,                AFFN,        AFFN
##VAR_DIM=         8192,                8192,                8192,           2
##UNITS=        SECONDS,     ARBITRARY UNITS,     ARBITRARY UNITS,            
##FIRST=              0,                   0,                   0,           1
##LAST=    1.638199e+00,  0.0279985804755039,    0.12452062462376,           2
##MIN=                0,   -5262.35876435244,   -5093.73918824873,           1
##MAX=     1.638199e+00,    5096.55516601861,     5484.2763168892,           2
##FACTOR=             1,                   1,                   1,           1
##PAGE=N=1
##DATA TABLE=(X++(R..R)), XYDATA
0.000000     0.000000  2199.406800 -4007.051905 -5111.535351   234.698038  5096.555166
0.001200  3642.352568 -2253.417244 -5262.358764 -1772.955795  3783.984323  4595.211825
0.002400  -152.877863 -4570.658177 -3404.094073  1809.822391  4768.279498  1978.663260
0.003600 -3156.767391 -4471.107647  -399.448348  4163.094474  3710.192344 -1236.848551
0.004800 -4750.193590 -2524.036004  2848.604986  4819.361846   868.165090 -4238.904558
0.006000 -4171.078760  1088.863611  5073.444171  2788.040777 -3009.506825 -5106.234207
0.007200  -839.991313  4498.668566  4242.017364 -1301.067018 -5205.694312 -2619.602521
0.008400  3183.485645  4972.285275   597.115964 -4427.368559 -3927.150106  1360.604723
0.009600  4879.889282  2368.062408 -2964.244494 -4567.970351  -616.989140  3977.204799
0.010800  3683.989844 -1025.926523 -4427.093449 -2475.896527  2422.333377  4382.870987
0.012000  1053.374998 -3554.580767 -3870.637695   493.696231  4299.504430  2928.812230
0.013200 -2059.826362 -4629.961696 -1523.276310  3545.438218  4301.443510  -288.104295
0.014400 -4598.846563 -3237.810078  2185.613758  4947.102175  1550.551107 -3828.021898
0.015600 -4430.181541   515.893587  4781.282814  3046.390869 -2434.630032 -4816.027929
0.016800 -1229.015953  3800.503971  4064.977816  -655.719322 -4445.703225 -2727.528427
0.018000  2225.279037  4347.675817  1206.120609 -3292.583034 -3772.222291   262.777106
0.019200  3938.144172  2864.114259 -1645.815523 -4175.433112 -1685.365260  2863.141923
0.020400  4001.932189   277.450135 -3877.279625 -3353.689893  1341.775939  4479.885385
0.021600  2103.256488 -2942.590895 -4412.835896  -394.674686  4185.084730  3577.618499
0.022800 -1513.174602 -4743.901637 -2048.682344  3204.722634  4436.635467   154.166536
0.024000 -4274.157719 -3357.934361  1682.579885  4560.050675  1785.009946 -3110.476904
0.025200 -4106.737410   -88.743213  3943.718649  3103.695500 -1464.043710 -4153.567352
0.026400 -1797.267953  2657.537381  3864.080260   416.990977 -3511.841268 -3203.252564
0.027600   976.581291  3979.580693  2173.401424 -2278.644096 -4019.450266  -879.045213
0.028800  3396.726294  3583.692415  -661.106698 -4182.842647 -2567.565782  2280.723754
0.030000  4358.631260  1027.993273 -3626.672859 -3817.609309   768.686167  4439.454096
0.031200  2562.343843 -2517.401040 -4430.640834  -807.943990  3776.046137  3620.136615
0.032400  -995.068022 -4293.750714 -2250.946862  2503.164199  4075.219262   645.414157
0.033600 -3457.342810 -3259.671372   836.007068  3807.378530  2172.059212 -2026.583871
0.034800 -3743.400753  -964.195056  2945.185662  3309.814914  -301.520931 -3575.677070
0.036000 -2564.293295  1587.282280  3890.787292  1464.043051 -2838.564546 -3729.735575
0.037200    14.072793  3823.259264  2934.508679 -1643.642108 -4240.123647 -1554.085732
0.038400  3116.206813  3913.583938  -194.358390 -4061.105492 -2835.132628  1917.415254
0.039600  4218.187604  1268.117965 -3189.681915 -3628.946367   396.192509  3830.754708
0.040800  2511.517337 -1826.737224 -3829.781927 -1147.108279  2837.330173  3310.815009
0.042000  -191.391131 -3385.770097 -2476.226021  1386.787156  3553.068323  1445.735590
0.043200 -2412.850448 -3370.703320  -244.893002  3200.637900  2797.503472 -1031.643463
0.044400 -3672.018853 -1843.377784  2316.865517  3696.997352   490.798125 -3384.345319
0.045600 -3089.134875  1055.211781  3932.475962  1938.832266 -2501.533193 -3853.216452
0.046800  -380.491591  3577.156957  3049.389852 -1271.192615 -3959.141708 -1712.212560
0.048000  2606.874878  3640.260568   183.867084 -3424.327557 -2758.938502  1253.170335
0.049200  3620.186059  1535.963553 -2318.821124 -3287.746881  -312.030557  2978.928530
0.050400  2662.710368  -836.816826 -3300.947567 -1788.310076  1863.003159  3287.847691
0.051600   767.162958 -2730.337785 -2980.077147   422.971768  3406.950520  2244.044865
0.052800 -1742.400166 -3647.708711 -1039.321592  2930.917161  3317.444342  -461.402126
0.054000 -3719.879295 -2337.892741  1998.086924  3838.044724   867.977216 -3165.353977
0.055200 -3218.446931   726.436162  3703.935867  2051.226700 -2080.681287 -3558.561109
0.056400  -657.190910  2953.126994  2888.498930  -656.891803 -3306.527622 -1912.380444
0.057600  1728.830505  3221.964539   853.290855 -2502.429754 -2840.459664   222.457826
0.058800  3033.598625  2206.218694 -1310.928763 -3278.228812 -1283.564147  2319.038514
0.060000  3154.489985   113.582840 -3152.914553 -2572.090657  1242.091424  3580.386559
0.061200  1481.781962 -2493.064751 -3396.212231   -68.735720  3384.843979  2625.701445
0.062400 -1421.029771 -3690.336932 -1336.839753  2656.250405  3301.523482  -138.071363
0.063600 -3340.407159 -2386.491679  1476.595176  3461.717024  1163.444201 -2492.447539
0.064800 -3016.940145   113.740747  3005.696079  2212.485224 -1205.568224 -3119.167110
0.066000 -1277.932299  2073.355052  2905.593070   243.542401 -2704.925859 -2406.074595
0.067200   790.034081  3072.996454  1664.445775 -1822.631802 -3157.392234  -609.966072
0.068400  2764.646251  2774.837274  -671.212042 -3356.061956 -1896.396455  1977.029815
0.069600  3426.952527   585.391942 -3023.686040 -2851.586777   896.846097  3499.021886
0.070800  1709.380169 -2183.222513 -3304.737689  -316.082892  2992.566466  2540.867046
0.072000 -1000.187345 -3213.895764 -1465.786573  1995.234568  2937.220239   332.984564
0.073200 -2590.247439 -2348.226925   679.350861  2845.788846  1601.155802 -1549.135605
0.074400 -2846.887481  -724.417480  2297.411626  2572.872908  -280.115136 -2853.356137
0.075600 -1982.422874  1362.494805  3107.622138  1032.373872 -2396.664384 -2898.300915
0.076800   230.325148  3112.962921  2131.801329 -1525.922433 -3308.266661  -957.856595
0.078000  2603.470920  2905.716582  -428.996503 -3188.808139 -1948.202838  1668.304235
0.079200  3158.720998   748.166745 -2527.843833 -2640.401651   469.801965  2929.939161
0.080400  1769.516504 -1489.341864 -2854.643915  -764.427134  2185.981782  2479.731253
0.081600  -195.078766 -2614.047673 -1870.114589  1114.677651  2754.219250  1081.460410
0.082800 -1904.083359 -2622.647232  -161.759217  2557.272944  2200.107308  -884.518423
0.084000 -2952.388428 -1394.512114  1937.973702  2924.285354   274.645646 -2773.462288
0.085200 -2398.483183  1000.259861  3181.639695  1376.854956 -2161.064404 -2989.449312
0.086400   -74.410630  2891.715906  2228.931672 -1181.582993 -3069.314588 -1134.264647
0.087600  2134.450954  2700.459799   -29.579795 -2629.414239 -1974.099287  1016.371238
0.088800  2699.441123  1123.181832 -1746.492750 -2482.613945  -263.378802  2252.219872
0.090000  2078.529355  -585.092425 -2571.400950 -1475.152327  1436.408519  2662.103428
0.091200   661.330229 -2218.927197 -2439.238664   384.168459  2814.505010  1774.110074
0.092400 -1522.581801 -2968.261751  -704.329526  2467.390357  2575.534850  -544.751053
0.093600 -2995.729625 -1687.052900  1729.731351  2948.060429   481.337382 -2525.037124
0.094800 -2357.948041   691.352388  2816.146163  1450.867014 -1638.721980 -2656.042837
0.096000  -425.375097  2247.975447  2144.138583  -511.451867 -2481.736984 -1465.745251
0.097200  1291.072598  2479.705819   692.279751 -1930.702214 -2228.675168   161.594622
0.098400  2372.860468  1740.644590 -1026.929964 -2608.405321 -1010.823664  1884.014783
0.099600  2502.044956     9.235556 -2546.744893 -1974.635767  1074.291178  2829.642102
0.100800  1070.042758 -2061.897906 -2636.112263    97.943806  2713.440808  1918.008218
0.102000 -1266.756551 -2836.386224  -866.458434  2143.176977  2449.788367  -273.197315
0.103200 -2587.935745 -1676.168253  1247.127509  2561.445048   740.207541 -1904.113260
0.104400 -2184.320065   149.134481  2240.138114  1616.032364  -910.116638 -2322.834561
0.105600  -961.565562  1553.964753  2217.137174   210.942048 -2079.894680 -1889.923836
0.106800   612.384352  2437.258900  1302.330880 -1503.251724 -2519.738858  -397.759441
0.108000  2278.427669  2144.741914  -690.272338 -2701.441340 -1337.161430  1722.262855
