##TITLE=1D-13C-1-2-5-328-110-"no"-"yes"
##JCAMP-DX=5.01 $$ Magritek Spinsolve SPA1903 2.0.4.4423
##DATA TYPE=NMR FID
##DATA CLASS=NTUPLES
##ORIGIN=SPA1903 at Magritek
##OWNER=Copyright (C) 2025 by Magritek
##LONGDATE=2025/03/17 12:00:25.367
##.OBSERVE FREQUENCY=15.4860999900848
##.OBSERVE NUCLEUS=^13C
##.DELAY=( 20,  2000)
##.ACQUISITION MODE=SIMULTANEOUS
##.FIELD= 1.5
##.AVERAGES= 1
##.DIGITISER RES=16
##.SHIFT REFERENCE=(INTERNAL, Water, 4096, 0)
##$REFERENCE_POINT= 796.529    $$ Referencing label
$$      Distance of the zero axis position (in Hz) from the last data
$$      point (right edge); positive values -> right edge is below 0 Hz
##SPECTROMETER/DATA SYSTEM=Magritek
##SAMPLE DESCRIPTION=solvent=Water
$$ Bruker specific parameters
$$ --------------------------
##$AUNMP=   <proc_1d_nosref>
##$INSTRUM= <Magritek>
##$SI=      8192
##$TD=      8192
##$TDeff=   8192
##$SW=      322.870200
##$BF1=     15.4860999900848
##$SF=      15.4843965190859
##$LB=      0
##$PHC0=    216.5
##$PHC1=    0.0
##$REVERSE= yes
$$ End of Bruker specific parameters
$$ ---------------------------------
##NTUPLES=NMR FID
##VAR_NAME=        TIME,            FID/REAL,            FID/IMAG, PAGE NUMBER
##SYMBOL=             X,                   R,                   I,           N
##VAR_TYPE= INDEPENDENT,           DEPENDENT,           DEPENDENT,        PAGE
##VAR_FORM=        AFFN,                AFFN,                AFFN,        AFFN
##VAR_DIM=         8192,                8192,                8192,           2
##UNITS=        SECONDS,     ARBITRARY UNITS,     ARBITRARY UNITS,            
##FIRST=              0,                   0,                   0,           1
##LAST=    1.638199e+00,  -0.611776427695778,   0.112440930914864,           2
##MIN=                0,   -2181.49723359556,   -2150.27495195268,           1
##MAX=     1.638199e+00,      2125.947295836,    2274.87350347897,           2
##FACTOR=             1,                   1,                   1,           1
##PAGE=N=1
##DATA TABLE=(X++(R..R)), XYDATA
0.000000     0.000000   918.233407 -1652.235523 -2123.160525    85.064435  2111.876357
0.001200  1516.917092  -925.128725 -2177.457046  -749.706943  1547.875923  1904.187184
0.002400   -41.465817 -1890.800355 -1427.076154   731.404023  1979.840650   836.670144
0.003600 -1292.088163 -1859.255279  -193.689477  1717.592700  1562.731711  -489.265628
0.004800 -1975.972801 -1076.024169  1165.985432  2015.721922   392.704477 -1755.308889
0.006000 -1767.596648   423.063018  2125.947296  1195.772775 -1232.463170 -2148.701832
0.007200  -392.373412  1868.647887  1801.590926  -509.544252 -2181.497234 -1129.566828
0.008400  1305.593731  2092.926034   285.705670 -1846.028436 -1670.949794   541.004628
0.009600  2043.302684  1031.736202 -1208.346059 -1923.073680  -300.404664  1651.833837
0.010800  1576.783808  -388.252810 -1854.889365 -1079.202901   985.173530  1852.094146
0.012000   487.621376 -1464.548734 -1667.152832   158.128179  1812.395865  1278.992911
0.013200  -833.472268 -1975.256466  -696.434351  1477.244026  1857.029459   -67.446306
0.014400 -1943.994382 -1421.076008   887.283608  2107.264724   700.134423 -1603.773009
0.015600 -1905.585257   170.690967  2022.281784  1345.212651  -991.097012 -2059.833907
0.016800  -570.701523  1582.003278  1752.949793  -219.643941 -1870.033528 -1209.122176
0.018000   889.854199  1861.078920   577.060505 -1364.456053 -1637.283865    46.814345
0.019200  1660.952549  1274.706784  -648.951011 -1790.995210  -782.634320  1178.210686
0.020400  1746.096108   186.800764 -1636.700501 -1487.688743   508.278243  1919.669682
0.021600   966.127815 -1217.531337 -1922.000392  -236.547328  1772.806632  1584.517963
0.022800  -591.718853 -2038.564078  -943.664552  1327.176336  1930.518767   135.541691
0.024000 -1806.605325 -1493.910238   655.552762  1961.528647   837.045015 -1284.869887
0.025200 -1785.720051  -105.690424  1661.560902  1383.025815  -554.173509 -1782.704735
0.026400  -843.956084  1089.527104  1691.784759   261.978619 -1478.984033 -1433.747568
0.027600   338.998214  1711.266889  1020.668022  -922.503330 -1767.128188  -459.699184
0.028800  1436.507855  1603.280932  -206.268680 -1808.164927 -1186.728442   927.301699
0.030000  1918.270155   526.704484 -1541.760459 -1704.579030   261.856715  1914.262167
0.031200  1174.032357 -1038.514827 -1951.628100  -431.522820  1597.888504  1625.432483
0.032400  -346.872822 -1849.594593 -1048.816572  1011.324557  1784.324471   378.315119
0.033600 -1445.664783 -1478.432736   262.465643  1643.385559  1031.806651  -801.074497
0.034800 -1657.786731  -522.602583  1234.684258  1505.523218   -35.537838 -1549.400069
0.036000 -1211.872092   614.827069  1728.079326   736.260541 -1197.181228 -1693.153655
0.037200   -88.799712  1664.075497  1371.039918  -644.590807 -1883.721594  -772.682389
0.038400  1313.996108  1769.471075     9.625916 -1759.817086 -1319.067234   759.545816
0.039600  1867.394357   655.750248 -1342.005828 -1652.742739    69.143443  1660.453815
0.040800  1185.463814  -710.258368 -1692.825297  -619.059359  1176.798214  1521.852902
0.042000    33.475440 -1465.755049 -1188.436702   513.346133  1589.158384   747.655063
0.043200  -997.586489 -1548.557339  -225.856493  1387.145867  1338.141370  -359.286607
0.044400 -1643.413653  -925.496861   956.743265  1695.885407   333.986647 -1467.813487
0.045600 -1466.230453   370.123254  1759.672015   964.492778 -1041.227068 -1761.431671
0.046800  -279.353258  1550.054705  1436.883391  -458.433762 -1757.302702  -864.776010
0.048000  1074.985592  1656.858054   195.924316 -1472.538075 -1307.055453   438.496291
0.049200  1608.971132   808.635821  -939.634592 -1519.587274  -267.731562  1279.961225
0.050400  1278.019236  -250.653597 -1474.673304  -933.532114   736.881272  1525.054108
0.051600   474.323461 -1175.620687 -1429.718738    72.497639  1524.057507  1116.932709
0.052800  -697.920964 -1688.604254  -590.439262  1270.140625  1572.642263   -95.156635
0.054000 -1660.334326 -1150.577436   800.960032  1748.449413   511.080372 -1354.666388
0.055200 -1517.490013   203.573947  1639.295101  1030.101998  -826.529244 -1624.663042
0.056400  -430.033051  1253.981230  1380.079094  -155.782702 -1460.764424  -987.748000
0.057600   656.878050  1483.366244   530.012086 -1050.130428 -1367.533983   -37.683943
0.058800  1348.719531  1118.764009  -478.784723 -1520.159425  -723.276068   981.535045
0.060000  1506.192927   179.385313 -1399.161908 -1273.270772   450.149484  1646.594792
0.061200   801.894215 -1055.977761 -1614.205933  -158.271417  1501.901798  1292.317175
0.062400  -532.982227 -1690.202833  -737.796279  1115.315375  1562.298188    80.768233
0.063600 -1474.678685 -1192.555242   547.155830  1571.481571   658.808135 -1030.326203
0.064800 -1432.501108   -99.168766  1320.705500  1124.076107  -409.950813 -1428.396305
0.066000  -727.430618   840.805884  1396.891552   273.545282 -1188.619672 -1226.116016
0.067200   224.053296  1424.559985   905.441829  -739.752459 -1511.808191  -427.346111
0.068400  1220.431857  1381.306981  -181.350696 -1547.849198  -996.472460   809.313427
0.069600  1627.298693   403.631726 -1330.376142 -1395.467313   284.386143  1595.469552
0.070800   912.027027  -884.915640 -1559.766669  -298.732256  1295.720972  1264.606328
0.072000  -307.428528 -1462.084195  -818.922109   786.837728  1403.528039   329.236554
0.073200 -1116.557905 -1201.414297   151.951639  1307.054392   891.951431  -587.718347
0.074400 -1372.484924  -507.212890   989.333801  1299.809891    20.384264 -1319.715835
0.075600 -1060.813456   518.756016  1492.032422   625.987927 -1040.936744 -1439.316332
0.076800   -39.685688  1430.890399  1122.190034  -592.246713 -1568.913613  -591.915900
0.078000  1127.522355  1432.655166   -39.836165 -1440.660426 -1042.787969   635.940485
0.079200  1492.203681   508.005581 -1073.432494 -1312.313679    47.241853  1315.798663
0.080400   967.547050  -543.019592 -1359.544629  -528.552115   911.777746  1248.712877
0.081600    82.195881 -1182.028626 -1025.665417   365.005144  1323.584906   686.621733
0.082800  -795.404377 -1327.978844  -245.905175  1163.355600  1167.275508  -276.101428
0.084000 -1414.654497  -812.875646   813.647935  1453.575932   282.241875 -1261.102681
0.085200 -1245.923313   334.548285  1500.395253   790.433876  -902.861496 -1463.310773
0.086400  -198.484944  1291.866905  1157.475420  -394.656854 -1431.813618  -698.765732
0.087600   868.107981  1329.506599   169.343413 -1155.841226 -1061.975103   300.548849
0.088800  1270.502353   704.447417  -692.811765 -1248.526283  -310.988381  1001.536947
0.090000  1120.492222  -110.747457 -1227.095003  -867.430575   562.760550  1334.584584
0.091200   482.285385  -997.813944 -1272.717782    34.352316  1333.370608   986.021173
0.092400  -603.711487 -1455.700948  -490.536323  1095.297227  1317.790016  -107.140970
0.093600 -1396.068920  -936.561563   683.502030  1429.581493   401.037575 -1101.834830
0.094800 -1218.679536   157.373739  1308.401620   846.325003  -629.239097 -1298.941954
0.096000  -387.976716   963.702500  1133.364330   -58.231861 -1156.361945  -859.538375
0.097200   464.382380  1236.841957   519.889689  -830.140240 -1181.963221  -105.605243
0.098400  1113.786095   992.524565  -347.576773 -1292.809477  -649.884925   821.139202
0.099600  1305.801568   172.887480 -1192.041248 -1087.028696   375.807753  1389.865957
0.100800   675.361026  -892.780571 -1342.189110  -116.840435  1250.582808  1055.892236
0.102000  -451.417883 -1374.712792  -582.982220   905.101463  1251.142265    58.997797
0.103200 -1174.819544  -948.603811   420.177708  1238.188903   549.941319  -780.182200
0.104400 -1146.366996  -133.131549  1017.888596   941.543293  -258.985467 -1145.054638
0.105600  -657.055182   628.585288  1177.846855   302.521682  -962.913150 -1074.597793
0.106800   140.004781  1215.837168   805.067126  -620.072179 -1305.490639  -367.305520
0.108000  1051.123361  1172.012331  -180.975457 -1313.761751  -806.812898   713.078531
