##TITLE=1D-13C-1-5-5-328-110-"no"-"yes"
##JCAMP-DX=5.01 $$ Magritek Spinsolve SPA1903 2.0.4.4423
##DATA TYPE=NMR FID
##DATA CLASS=NTUPLES
##ORIGIN=SPA1903 at Magritek
##OWNER=Copyright (C) 2025 by Magritek
##LONGDATE=2025/02/12 14:29:23.153
##.OBSERVE FREQUENCY=15.4861775226891
##.OBSERVE NUCLEUS=^13C
##.DELAY=( 20,  5000)
##.ACQUISITION MODE=SIMULTANEOUS
##.FIELD= 1.5
##.AVERAGES= 1
##.DIGITISER RES=16
##.SHIFT REFERENCE=(INTERNAL, Water, 4096, 0)
##$REFERENCE_POINT= 796.520    $$ Referencing label
$$      Distance of the zero axis position (in Hz) from the last data
$$      point (right edge); positive values -> right edge is below 0 Hz
##SPECTROMETER/DATA SYSTEM=Magritek
##SAMPLE DESCRIPTION=solvent=Water
$$ Bruker specific parameters
$$ --------------------------
##$AUNMP=   <proc_1d_nosref>
##$INSTRUM= <Magritek>
##$SI=      8192
##$TD=      8192
##$TDeff=   8192
##$SW=      322.868600
##$BF1=     15.4861775226891
##$SF=      15.4844740431616
##$LB=      0
##$PHC0=    217.7
##$PHC1=    0.0
##$REVERSE= yes
$$ End of Bruker specific parameters
$$ ---------------------------------
##NTUPLES=NMR FID
##VAR_NAME=        TIME,            FID/REAL,            FID/IMAG, PAGE NUMBER
##SYMBOL=             X,                   R,                   I,           N
##VAR_TYPE= INDEPENDENT,           DEPENDENT,           DEPENDENT,        PAGE
##VAR_FORM=        AFFN,                AFFN,                AFFN,        AFFN
##VAR_DIM=         8192,                8192,                8192,           2
##UNITS=        SECONDS,     ARBITRARY UNITS,     ARBITRARY UNITS,            
##FIRST=              0,                   0,                   0,           1
##LAST=    1.638199e+00,   0.290299383108774,  -0.128754546107356,           2
##MIN=                0,    -2871.7331905299,   -2713.13573142587,           1
##MAX=     1.638199e+00,    2742.37963327074,    2968.18386387021,           2
##FACTOR=             1,                   1,                   1,           1
##PAGE=N=1
##DATA TABLE=(X++(R..R)), XYDATA
0.000000     0.000000  1195.831345 -2173.410238 -2772.988245   100.467562  2742.379633
0.001200  2012.013783 -1174.500710 -2871.733191 -1021.244052  2032.103097  2527.275824
0.002400   -42.288491 -2474.727349 -1883.157644   940.452359  2595.422400  1118.000206
0.003600 -1693.349908 -2438.828349  -239.280023  2228.563993  2004.251833  -627.879894
0.004800 -2518.701606 -1376.651717  1466.202361  2559.448319   516.910508 -2192.199926
0.006000 -2226.812087   485.877045  2621.080773  1540.359642 -1454.572129 -2677.754879
0.007200  -590.858455  2243.240915  2299.261223  -500.926686 -2672.124465 -1520.468438
0.008400  1497.230704  2635.267107   521.319934 -2196.671387 -2187.869102   491.524230
0.009600  2529.877151  1444.358412 -1381.103893 -2468.968402  -542.604711  1992.119068
0.010800  2075.535322  -333.416642 -2306.289676 -1483.849904  1125.276144  2362.237238
0.012000   730.124983 -1777.292115 -2119.671138    98.281328  2199.943534  1657.871452
0.013200  -915.126609 -2415.868439  -957.987531  1716.498996  2291.375221    37.555907
0.014400 -2268.784373 -1787.697973   901.109261  2505.357517  1014.967478 -1760.399675
0.015600 -2352.417950    -4.879847  2321.641387  1741.263491  -963.542600 -2443.762739
0.016800  -918.036954  1714.839227  2210.524523   -13.826750 -2176.314395 -1627.585766
0.018000   870.220811  2244.007278   904.187332 -1486.563157 -2061.571300  -159.237094
0.019200  1929.394875  1672.852003  -608.318269 -2136.015134 -1087.505432  1266.190058
0.020400  2106.685018   399.492590 -1825.270959 -1854.318004   408.160203  2202.403817
0.021600  1293.476949 -1222.646698 -2250.901064  -504.082802  1885.825864  1962.577720
0.022800  -395.410697 -2275.450536 -1331.057991  1266.815621  2280.857030   470.411689
0.024000 -1899.815890 -1911.033638   425.036953  2206.540818  1262.372115 -1205.093203
0.025200 -2166.079784  -474.573955  1769.150807  1821.829223  -329.984833 -2038.103713
0.026400 -1264.866319  1014.371305  2052.145243   609.599935 -1572.230805 -1848.454888
0.027600   126.719403  1945.932184  1397.869077  -843.682421 -2064.639382  -786.646254
0.028800  1473.319680  1965.124445    33.716285 -1968.625275 -1544.208594   798.950160
0.030000  2155.142586   858.587599 -1495.918031 -2024.827455   -46.699563  2004.112617
0.031200  1557.886734  -825.873168 -2155.569182  -804.157754  1502.658005  1928.268936
0.032400     3.722317 -1895.944406 -1456.218389   759.495188  2001.273859   777.536935
0.033600 -1339.896171 -1783.415620   -92.838711  1669.782909  1419.466125  -530.805812
0.034800 -1839.268474  -924.910195  1105.582373  1794.225213   321.595082 -1539.485715
0.036000 -1561.249139   314.873807  1854.546951  1143.291058 -1008.166756 -1950.051769
0.037200  -477.603914  1611.414865  1720.378036  -305.357124 -1975.263064 -1199.944868
0.038400  1083.106417  2025.525676   433.935944 -1692.969115 -1693.203103   406.474003
0.039600  1965.633479  1072.774828 -1112.016067 -1885.075668  -338.220557  1582.648135
0.040800  1530.188261  -379.216724 -1771.985473  -988.461380   957.079970  1699.224995
0.042000   397.067088 -1346.483498 -1459.417398   169.464586  1592.699696  1092.594078
0.043200  -727.629546 -1666.154402  -590.071061  1201.835518  1554.829276    26.250322
0.044400 -1567.245883 -1271.711571   613.262975  1776.534986   741.887687 -1225.764005
0.045600 -1685.259623   -64.979061  1648.232946  1338.029591  -641.627042 -1842.814042
0.046800  -740.582577  1290.181866  1691.688122    -7.991984 -1659.999545 -1248.922538
0.048000   679.634701  1750.009194   659.271117 -1226.708900 -1571.081263    11.793786
0.049200  1523.167111  1149.326382  -579.356389 -1572.039544  -680.330568  1015.162883
0.050400  1483.248878   159.724984 -1350.059967 -1219.025961   368.243152  1509.150886
0.051600   851.234957  -848.087283 -1558.857473  -370.934364  1310.272080  1405.521431
0.052800  -247.549695 -1619.503987 -1001.765292   869.093081  1693.375167   419.149438
0.054000 -1404.822884 -1486.441513   301.677425  1713.666805   975.113380  -967.255619
0.055200 -1685.267642  -311.692813  1419.605449  1370.020339  -354.180095 -1604.679859
0.056400  -867.498305   904.645366  1527.877449   291.021090 -1253.237243 -1251.323608
0.057600   240.106345  1405.363122   882.744627  -681.806353 -1423.086548  -458.383673
0.058800  1059.277304  1299.216731   -25.766994 -1326.559538 -1042.015655   510.733586
0.060000  1478.347402   652.892754 -1010.518729 -1454.247530   -90.381572  1403.632204
0.061200  1168.698149  -511.181088 -1574.704397  -702.601786  1059.452720  1520.851774
0.062400    76.587729 -1467.859356 -1168.353854   572.357973  1572.671569   629.731368
0.063600 -1064.619275 -1440.137674   -49.088856  1390.174966  1099.364479  -531.868327
0.064800 -1464.816424  -600.222152   951.517013  1329.512474   112.808923 -1229.174736
0.066000 -1083.725333   377.547532  1366.366207   689.191273  -805.302073 -1322.540561
0.067200  -257.742763  1131.462460  1168.352823  -231.107940 -1375.914181  -834.114704
0.068400   753.551213  1421.021825   340.677166 -1165.326543 -1247.345363   218.562101
0.069600  1432.288008   868.200207  -787.506821 -1458.609225  -309.095410  1207.568997
0.070800  1209.728450  -277.375092 -1393.349919  -781.134809   775.793725  1348.016403
0.072000   265.043068 -1105.955729 -1101.074048   227.354062  1239.744586   742.946102
0.073200  -623.088099 -1218.374406  -357.691580   922.821433  1096.655213   -50.462209
0.074400 -1143.548307  -860.586175   468.213860  1242.035284   521.071061  -852.477707
0.075600 -1213.953665   -83.886227  1189.187829  1007.446401  -448.480002 -1361.436888
0.076800  -579.257613   924.965130  1287.221135    52.405602 -1257.467066 -1003.627883
0.078000   510.276426  1381.555888   520.259082  -967.103924 -1220.023501    19.606993
0.079200  1201.037128   904.175807  -492.749938 -1266.943037  -470.943906   873.904699
0.080400  1113.415710    13.897645 -1060.098236  -853.866296   356.666156  1135.575449
0.081600   546.588749  -705.742267 -1103.206836  -162.298610   965.393982   931.755657
0.082800  -217.427318 -1121.250591  -682.132215   610.521457  1187.886124   298.087796
0.084000  -979.325013 -1054.687761   172.948439  1202.379468   755.614470  -636.906583
0.085200 -1258.245702  -308.000458  1039.010802  1083.181635  -222.239845 -1231.078582
0.086400  -703.484506   678.754607  1202.833314   242.533649  -997.228164  -990.783677
0.087600   221.825823  1129.144510   642.187819  -596.388709 -1077.035719  -264.122294
0.088800   835.678376   919.367994   -83.185531  -979.761554  -709.611474   411.492274
0.090000  1044.842633   426.794630  -714.022761 -1011.154640   -86.694055   968.840460
0.091200   869.263807  -312.899561 -1150.099440  -569.429541   747.688099  1151.115751
0.092400   116.460652 -1073.128900  -932.424580   378.475786  1232.947628   544.599316
0.093600  -833.893958 -1155.353524   -20.061904  1113.167282   837.801007  -447.404849
0.094800 -1145.578255  -436.916006   785.002309  1023.492714     3.646405  -983.452641
0.096000  -742.335904   367.171275   989.853262   434.078545  -613.166991  -923.463509
0.097200  -133.584711   818.898726   784.106041  -192.592262  -928.649434  -559.624595
0.098400   480.277422   966.185756   290.449457  -772.826705  -912.156894    86.118766
0.099600   998.471622   682.704486  -486.918590 -1066.203116  -335.766550   828.165616
0.100800   980.559516  -103.005474 -1071.718988  -690.416168   556.178866  1094.757719
0.102000   271.058503  -873.499668  -919.918806   167.444464  1029.412713   608.831637
0.103200  -547.503692 -1001.934523  -222.952266   795.025728   816.521902  -137.503645
0.104400  -897.083905  -567.002732   428.172929   894.691311   290.207301  -654.511740
0.105600  -810.428531     7.105733   815.669278   651.355754  -298.914307  -904.113586
0.106800  -419.440197   598.404480   913.035196    93.510860  -866.047246  -757.752977
0.108000   301.525290   994.722006   454.455215  -659.846858  -967.228096   -61.163749
