##TITLE=1D-13C-1-5-5-328-110-"no"-"yes"
##JCAMP-DX=5.01 $$ Magritek Spinsolve SPA1903 2.0.4.4423
##DATA TYPE=NMR FID
##DATA CLASS=NTUPLES
##ORIGIN=SPA1903 at Magritek
##OWNER=Copyright (C) 2025 by Magritek
##LONGDATE=2025/02/12 14:32:39.044
##.OBSERVE FREQUENCY=15.4861775226891
##.OBSERVE NUCLEUS=^13C
##.DELAY=( 20,  5000)
##.ACQUISITION MODE=SIMULTANEOUS
##.FIELD= 1.5
##.AVERAGES= 1
##.DIGITISER RES=16
##.SHIFT REFERENCE=(INTERNAL, Water, 4096, 0)
##$REFERENCE_POINT= 796.520    $$ Referencing label
$$      Distance of the zero axis position (in Hz) from the last data
$$      point (right edge); positive values -> right edge is below 0 Hz
##SPECTROMETER/DATA SYSTEM=Magritek
##SAMPLE DESCRIPTION=solvent=Water
$$ Bruker specific parameters
$$ --------------------------
##$AUNMP=   <proc_1d_nosref>
##$INSTRUM= <Magritek>
##$SI=      8192
##$TD=      8192
##$TDeff=   8192
##$SW=      322.868600
##$BF1=     15.4861775226891
##$SF=      15.4844740431616
##$LB=      0
##$PHC0=    216.7
##$PHC1=    0.0
##$REVERSE= yes
$$ End of Bruker specific parameters
$$ ---------------------------------
##NTUPLES=NMR FID
##VAR_NAME=        TIME,            FID/REAL,            FID/IMAG, PAGE NUMBER
##SYMBOL=             X,                   R,                   I,           N
##VAR_TYPE= INDEPENDENT,           DEPENDENT,           DEPENDENT,        PAGE
##VAR_FORM=        AFFN,                AFFN,                AFFN,        AFFN
##VAR_DIM=         8192,                8192,                8192,           2
##UNITS=        SECONDS,     ARBITRARY UNITS,     ARBITRARY UNITS,            
##FIRST=              0,                   0,                   0,           1
##LAST=    1.638199e+00,   0.147946894706909, -0.0449528726943836,           2
##MIN=                0,   -73.3973522521713,   -72.0467988751458,           1
##MAX=     1.638199e+00,    72.2981011594724,    77.2107014911797,           2
##FACTOR=             1,                   1,                   1,           1
##PAGE=N=1
##DATA TABLE=(X++(R..R)), XYDATA
0.000000     0.000000    33.582756   -54.156120   -70.349394     1.566538    67.497176
0.001200    50.961487   -27.078289   -69.648718   -31.413867    50.727036    68.404160
0.002400    -0.387126   -65.177969   -50.488910    22.393916    67.105667    30.650415
0.003600   -39.792439   -64.877492    -9.288293    59.499151    54.951130   -14.192304
0.004800   -65.562633   -40.728183    35.634416    66.099624    16.904498   -55.650703
0.006000   -61.341619    13.520507    72.077101    43.079902   -38.180880   -73.397352
0.007200   -19.570439    57.707242    60.834722   -11.105614   -67.820790   -41.301133
0.008400    38.585944    70.120868    14.991418   -59.175208   -63.064837     9.309227
0.009600    66.900870    41.475597   -35.482398   -69.754928   -17.610738    52.688724
0.010800    61.761934    -5.404166   -61.724011   -43.180106    27.208565    63.800279
0.012000    21.368721   -45.858581   -60.470510    -1.348375    61.778255    50.436059
0.013200   -22.456902   -66.526852   -28.734169    45.042183    69.541616     8.438003
0.014400   -62.220644   -55.348995    21.759677    72.298101    33.176431   -45.191235
0.015600   -67.666081    -5.926692    63.419515    54.309487   -21.830393   -68.517985
0.016800   -32.622776    47.438419    68.086409     7.967019   -56.867245   -51.004500
0.018000    18.897096    65.145567    29.996295   -39.280733   -59.623752   -11.868049
0.019200    52.423499    52.791896   -10.153462   -61.037889   -38.661714    32.872379
0.020400    64.178057    17.438075   -51.586940   -59.636956     6.542973    62.953058
0.021600    43.507470   -31.563738   -69.256745   -22.204184    53.175790    66.602206
0.022800    -2.398317   -68.224660   -44.969961    34.195593    70.398458    20.429143
0.024000   -52.733596   -59.229628     7.949017    63.065501    43.261125   -28.849349
0.025200   -66.718967   -22.156885    46.375956    56.889180    -1.460964   -60.534020
0.026400   -43.580629    24.481138    61.962238    26.625526   -41.552961   -59.706631
0.027600    -4.213449    55.087451    47.380186   -19.221794   -64.371071   -29.596594
0.028800    41.504020    63.039983    11.321046   -55.156488   -54.793442    18.023486
0.030000    65.852234    32.007153   -42.554381   -66.722753    -7.823913    59.772891
0.031200    53.791795   -18.289631   -67.343776   -32.572219    40.904241    63.674174
0.032400     7.415898   -54.959943   -50.089891    14.781254    63.039800    31.673645
0.033600   -38.902181   -59.396067   -11.858835    50.913854    50.178605    -8.077880
0.034800   -60.737215   -40.995648    31.359237    60.506502    18.955489   -46.346405
0.036000   -56.513940     3.926061    59.158050    44.350324   -23.695887   -64.109177
0.037200   -24.917262    46.813739    59.261774    -2.469212   -58.149884   -45.731228
0.038400    23.925836    64.665653    19.127328   -49.055079   -58.255765     2.637214
0.039600    63.341928    46.209474   -25.053096   -62.401400   -22.369584    44.767294
0.040800    58.309813     1.758681   -53.175280   -42.444804    20.898333    57.000743
0.042000    23.291933   -38.056993   -53.793771    -5.065030    52.895702    47.809781
0.043200   -14.506295   -59.309272   -30.496758    34.016846    56.469083     9.048911
0.044400   -52.440019   -50.687009    13.027657    63.858679    34.681937   -35.565006
0.045600   -60.872396   -10.405035    54.763142    54.593601   -10.013798   -61.297201
0.046800   -34.860518    34.694970    61.773730    12.940344   -53.810918   -49.327096
0.048000    14.790406    56.003354    33.646343   -31.267748   -58.537610   -12.862751
0.049200    48.395335    47.868843    -8.903531   -54.513149   -34.660950    25.981336
0.050400    54.983877    16.702433   -43.877610   -51.180250     2.392669    53.892406
0.051600    39.581681   -21.081531   -59.102786   -23.584445    41.604796    58.720782
0.052800     1.707239   -55.633484   -43.613638    22.651890    64.214082    27.024071
0.054000   -41.223897   -58.094491    -1.022859    56.201907    44.573041   -23.556372
0.055200   -60.705613   -22.858833    44.885431    55.283118    -0.999563   -51.387162
0.056400   -40.991622    20.265743    55.706036    21.220502   -35.135969   -50.490036
0.057600    -7.678479    47.956565    44.272620   -12.830685   -54.407148   -29.747596
0.058800    34.111216    55.189695    13.110503   -44.703869   -48.849423     6.460209
0.060000    55.450143    35.064079   -30.624184   -59.214942   -15.369177    48.439193
0.061200    53.391452    -5.922809   -57.310246   -37.373513    30.290415    60.896423
0.062400    14.477449   -48.854953   -49.844830    11.310880    56.365504    35.704884
0.063600   -29.171903   -56.821241   -13.903960    44.034808    48.761126    -5.875667
0.064800   -53.299960   -34.039962    24.951733    54.079049    20.654848   -39.747789
0.066000   -50.293572     2.270490    49.127821    39.214101   -19.142143   -54.598866
0.067200   -25.402148    34.027912    52.775983     6.470380   -48.704642   -43.053171
0.068400    17.258662    60.611923    28.187429   -37.706555   -57.824629    -6.930412
0.069600    51.834110    44.769010   -18.611071   -60.144273   -28.046099    38.802068
0.070800    55.609055     3.361601   -53.497445   -42.773805    19.006839    52.653067
0.072000    23.905856   -33.669536   -51.184828    -4.458754    46.549362    40.160021
0.073200   -12.888919   -52.215187   -29.326797    26.991967    54.867507    14.412202
0.074400   -42.173051   -46.589117     4.745432    53.519483    36.293013   -24.946915
0.075600   -54.270422   -17.970316    44.154266    52.023610    -5.971352   -54.821041
0.076800   -36.901324    28.735837    59.019520    17.571673   -43.156200   -49.890619
0.078000     4.058835    52.357010    35.622409   -25.790584   -57.164510   -15.447616
0.079200    40.905142    47.607075    -3.584633   -50.846522   -35.885552    19.293603
0.080400    51.895395    19.081668   -36.979370   -47.967024    -2.317971    45.624712
0.081600    38.176025   -16.096472   -53.009442   -25.313779    34.306868    51.268727
0.082800     5.711800   -45.227237   -43.372220    14.770417    53.191840    26.576145
0.084000   -33.205451   -54.234094    -8.903563    46.833049    46.527517   -11.939591
0.085200   -53.382422   -26.899888    33.495669    51.824655     7.635020   -47.521235
0.086400   -44.460685    14.322921    52.815203    25.700279   -31.199591   -52.162809
0.087600   -10.784927    41.507843    41.495608   -10.019432   -48.144265   -29.941105
0.088800    23.477592    47.349085    13.286023   -37.821191   -42.332437     4.526996
0.090000    47.583956    32.953235   -21.241872   -51.311568   -18.940358    37.609279
0.091200    49.771082    -0.139505   -49.586270   -36.688312    23.220542    54.043931
0.092400    18.103998   -41.452756   -48.628546     0.878803    49.337648    37.406720
0.093600   -21.615858   -55.119277   -17.405428    40.659555    46.900205    -0.593099
0.094800   -46.720222   -36.310328    19.140404    49.938482    18.797095   -32.903591
0.096000   -45.317036    -2.211273    43.815233    35.525417   -15.355539   -49.085998
0.097200   -25.770515    27.864903    46.398341     8.236234   -42.105925   -41.364872
0.098400     8.515432    49.128545    26.079460   -28.451369   -52.313892    -9.667173
0.099600    42.470322    43.938201    -7.588893   -51.797652   -29.160151    30.051456
0.100800    52.338266     9.767347   -45.757871   -44.152490    12.063941    50.669851
0.102000    27.998220   -29.900780   -48.451281   -10.140589    39.449397    40.735056
0.103200    -8.240365   -43.610557   -26.541630    24.269550    48.481461    13.683184
0.104400   -35.786122   -41.244329     1.015036    41.651760    32.714020   -17.542502
0.105600   -49.232039   -18.779349    34.728726    45.318404     1.724333   -44.008218
0.106800   -37.135924    14.871282    49.838681    21.826790   -32.839192   -47.522455
0.108000    -2.141361    44.503608    35.674312   -19.055974   -50.158444   -21.148059
