##TITLE=1D-13C-1-2-5-328-110-"no"-"yes"
##JCAMP-DX=5.01 $$ Magritek Spinsolve SPA1903 2.0.4.4423
##DATA TYPE=NMR FID
##DATA CLASS=NTUPLES
##ORIGIN=SPA1903 at Magritek
##OWNER=Copyright (C) 2025 by Magritek
##LONGDATE=2025/03/17 11:56:56.109
##.OBSERVE FREQUENCY=15.4860999900848
##.OBSERVE NUCLEUS=^13C
##.DELAY=( 20,  2000)
##.ACQUISITION MODE=SIMULTANEOUS
##.FIELD= 1.5
##.AVERAGES= 1
##.DIGITISER RES=16
##.SHIFT REFERENCE=(INTERNAL, Water, 4096, 0)
##$REFERENCE_POINT= 796.529    $$ Referencing label
$$      Distance of the zero axis position (in Hz) from the last data
$$      point (right edge); positive values -> right edge is below 0 Hz
##SPECTROMETER/DATA SYSTEM=Magritek
##SAMPLE DESCRIPTION=solvent=Water
$$ Bruker specific parameters
$$ --------------------------
##$AUNMP=   <proc_1d_nosref>
##$INSTRUM= <Magritek>
##$SI=      8192
##$TD=      8192
##$TDeff=   8192
##$SW=      322.870200
##$BF1=     15.4860999900848
##$SF=      15.4843965190859
##$LB=      0
##$PHC0=    217.6
##$PHC1=    0.0
##$REVERSE= yes
$$ End of Bruker specific parameters
$$ ---------------------------------
##NTUPLES=NMR FID
##VAR_NAME=        TIME,            FID/REAL,            FID/IMAG, PAGE NUMBER
##SYMBOL=             X,                   R,                   I,           N
##VAR_TYPE= INDEPENDENT,           DEPENDENT,           DEPENDENT,        PAGE
##VAR_FORM=        AFFN,                AFFN,                AFFN,        AFFN
##VAR_DIM=         8192,                8192,                8192,           2
##UNITS=        SECONDS,     ARBITRARY UNITS,     ARBITRARY UNITS,            
##FIRST=              0,                   0,                   0,           1
##LAST=    1.638199e+00,   -0.27197639413755,    0.30493567506298,           2
##MIN=                0,   -12909.5964657984,   -12199.8538968856,           1
##MAX=     1.638199e+00,    12420.8191810083,     13389.436227607,           2
##FACTOR=             1,                   1,                   1,           1
##PAGE=N=1
##DATA TABLE=(X++(R..R)), XYDATA
0.000000     0.000000  5359.114620 -9865.839411 -12470.214625   591.801092 12420.819181
0.001200  8917.290433 -5462.522685 -12909.596466 -4384.408191  9280.440192 11246.264643
0.002400  -421.370862 -11202.049092 -8285.646785  4453.559708 11658.053755  4796.425649
0.003600 -7787.968144 -10899.479850  -823.085232 10201.187677  8898.736172 -3149.292430
0.004800 -11496.979486 -5946.806828  7018.427395 11584.896532  1870.529235 -10321.080165
0.006000 -9857.751289  2848.103702 12141.862488  6449.829595 -7300.170446 -12080.341637
0.007200 -1851.254194 10742.951043  9965.838943 -3235.882035 -12339.344254 -6042.971360
0.008400  7656.127862 11689.618182  1275.492435 -10515.371632 -9201.832514  3348.548516
0.009600 11570.998982  5485.276548 -7156.370377 -10778.535682 -1252.440900  9510.922876
0.010800  8565.329469 -2625.246271 -10466.887370 -5640.539119  5946.448871 10261.595956
0.012000  2132.458682 -8524.443693 -8836.413469  1493.483417 10050.395372  6526.810961
0.013200 -5033.757222 -10668.662801 -3202.628052  8418.987234  9749.164932 -1021.116565
0.014400 -10621.651121 -7156.659450  5236.287351 11294.858015  3301.082744 -8964.380595
0.015600 -10035.428091  1504.455028 11051.546839  6715.776727 -5836.477729 -10973.716779
0.016800 -2540.440021  8882.878064  9188.878777 -1816.760795 -10310.822155 -5951.056782
0.018000  5451.265825  9865.451685  2369.361774 -7726.818049 -8403.429799   995.634263
0.019200  9110.189673  6183.433292 -4163.724280 -9419.637297 -3343.906551  6746.379500
0.020400  8792.227018   195.910125 -8848.396006 -7211.620148  3423.398869 10047.848555
0.021600  4293.191302 -6903.136442 -9666.643362  -430.527423  9471.635336  7678.481492
0.022800 -3743.844861 -10581.134886 -4201.227531  7431.580121  9735.573496  -102.727941
0.024000 -9690.574058 -7156.311224  4145.151820 10150.640325  3597.075229 -7237.774669
0.025200 -9000.095180   269.592991  8989.008459  6565.462645 -3742.055533 -9242.944077
0.026400 -3516.470606  6281.606207  8389.459860   405.569065 -8012.275159 -6711.722820
0.027600  2714.611280  8811.800619  4232.994457 -5427.753007 -8572.982658 -1374.250449
0.028800  7639.371033  7475.128001 -1959.836341 -9168.013592 -5089.466428  5370.180844
0.030000  9259.715528  1723.310376 -8048.324813 -7982.620308  2080.059721  9702.170390
0.031200  5176.850966 -5888.514242 -9502.688088 -1230.543531  8427.444909  7530.972571
0.032400 -2612.541642 -9394.739525 -4481.653677  5892.852147  8756.073363   794.776032
0.033600 -7828.579193 -6664.150352  2405.378651  8286.089894  4143.950043 -4866.519617
0.034800 -7906.612909 -1407.312131  6679.897897  6648.051826 -1310.123206 -7654.223013
0.036000 -4864.219148  3829.687026  8069.005364  2518.516049 -6315.879468 -7530.946029
0.037200   600.278782  8139.817141  5682.892732 -3905.574813 -8793.390439 -2750.323469
0.038400  6854.126883  7957.889693  -945.907968 -8682.118801 -5497.889640  4532.487308
0.039600  8782.476515  2076.539196 -7070.302521 -7312.593578  1441.389645  8215.761002
0.040800  4759.474755 -4421.427546 -7947.117051 -1718.996287  6369.848455  6533.598706
0.042000 -1118.575281 -7206.032219 -4570.333429  3482.447480  7288.664600  2288.271004
0.043200 -5453.885117 -6571.401693   238.433080  6737.176900  5129.844881 -2701.245574
0.044400 -7397.148584 -3118.420941  5146.353684  7206.180259   314.008497 -7057.783416
0.045600 -5731.315594  2698.328175  7892.499675  3361.040198 -5461.980147 -7587.723350
0.046800  -157.855214  7517.129010  5717.124082 -3201.319857 -8007.791553 -2857.462460
0.048000  5733.810777  7151.471378  -300.487702 -7293.094770 -5112.556602  3299.885904
0.049200  7374.354835  2368.926925 -5259.408310 -6328.036887   173.176151  6327.611436
0.050400  4794.676335 -2482.985953 -6635.463361 -2766.266672  4314.337604  6184.510104
0.051600   707.173519 -5669.194788 -5344.360272  1507.946096  6729.354394  3768.514730
0.052800 -3955.825822 -6943.919692 -1369.282237  6046.136356  6097.556717 -1498.541851
0.054000 -7401.048712 -4081.432088  4466.306681  7456.428531  1057.089202 -6652.757791
0.055200 -5970.811200  2146.530682  7473.254112  3448.743883 -4752.453355 -6909.776825
0.056400  -525.735250  6319.462390  5236.198042 -2161.507543 -6666.429773 -3015.807490
0.057600  4094.443762  6101.054791   824.771010 -5327.568344 -5058.370482  1257.190762
0.058800  6032.868764  3544.635868 -3197.787389 -6105.618250 -1692.464334  4842.176142
0.060000  5644.218340  -471.334220 -6213.644534 -4365.696261  2991.333675  6752.696731
0.061200  2149.277327 -5180.367271 -6173.963195   498.590970  6679.331802  4562.915764
0.062400 -3353.284340 -7087.304197 -1895.408591  5604.902310  6023.318142  -981.926159
0.063600 -6666.345974 -4064.912091  3534.443405  6667.879446  1492.373954 -5378.686612
0.064800 -5425.202884  1098.705145  6024.793448  3573.140042 -3057.033155 -5884.597659
0.066000 -1608.925450  4528.017293  5101.077447  -459.193538 -5335.902204 -3804.616189
0.067200  2208.885697  5622.081787  2341.422339 -3870.701123 -5508.081972  -388.790522
0.068400  5347.333212  4584.663677 -1871.988355 -6158.223851 -2891.422758  4095.693630
0.069600  6125.268072   452.645752 -5911.720883 -4875.885342  2335.282624  6605.251220
0.070800  2557.643737 -4650.502055 -5964.491986   170.102728  5982.471531  4247.016883
0.072000 -2690.077992 -6100.071649 -1924.028971  4429.198382  5149.667779  -344.878734
0.073200 -5179.667161 -3663.664009  2130.800624  5231.033263  2066.185280 -3493.090968
0.074400 -4820.934901  -388.913391  4482.015205  3993.580098 -1268.648795 -5094.421968
0.075600 -2851.412054  2966.995708  5328.325854  1110.709854 -4643.789224 -4719.400513
0.076800  1108.948187  5647.403855  3220.495930 -3277.667713 -5790.634533 -1041.640733
0.078000  5120.453672  4850.988864 -1550.477752 -5928.890504 -2845.092394  3685.594167
0.079200  5554.304808   559.149522 -5066.728381 -4340.296118  1747.268740  5507.436049
0.080400  2384.652391 -3487.431070 -4910.933596  -434.784356  4405.231933  3885.046780
0.081600 -1278.915488 -4819.174510 -2494.760547  2776.429581  4607.563627   952.367903
0.082800 -3774.711630 -4038.974606   523.074235  4567.306174  3144.351580 -2196.471723
0.084000 -4964.557441 -1658.834476  3766.412748  4667.438302  -195.498035 -4971.184360
0.085200 -3656.913202  2326.484977  5525.173638  1777.193046 -4270.348197 -4957.886820
0.086400   589.274916  5380.650500  3407.573298 -2806.236587 -5440.354038 -1256.848543
0.087600  4403.494962  4458.717118  -971.720102 -5001.378357 -2779.621582  2682.306514
0.088800  4679.101052  1024.051289 -3677.423992 -3862.095171   511.990274  4168.149093
0.090000  2823.506719 -1830.292565 -4259.141533 -1650.527649  2915.075358  4084.526058
0.091200   375.213310 -3934.974563 -3585.335847  1249.913637  4725.930709  2386.168587
0.092400 -3009.559835 -4770.630538  -603.207902  4439.549913  4021.587491 -1519.680997
0.093600 -5254.766285 -2337.841165  3558.364031  4902.066994    86.214195 -4728.582230
0.094800 -3597.076604  1937.713733  4988.636297  1811.026586 -3539.777834 -4353.689337
0.096000   203.330967  4288.340424  3030.177301 -1743.140216 -4260.865280 -1663.379446
0.097200  2862.746743  3879.279479   228.034930 -3618.016651 -3073.206260  1079.906853
0.098400  3901.712984  2113.118321 -2240.971407 -4003.069529  -914.188033  3404.272661
0.099600  3617.356754  -643.069475 -4185.345390 -2630.540715  2227.977752  4466.234254
0.100800  1167.684350 -3718.034374 -4017.409568   788.050983  4653.911013  2646.668339
0.102000 -2692.515130 -4632.359305  -760.228820  4034.031446  3735.679166 -1230.550989
0.103200 -4573.527221 -2139.975183  2864.963634  4153.545824   313.551974 -3727.824872
0.104400 -3083.501439  1215.272869  3862.941906  1811.235067 -2298.357839 -3543.968626
0.105600  -569.947511  2987.901591  2943.617622  -550.702985 -3360.922277 -2226.821869
0.106800  1576.945588  3612.306291  1313.156807 -2720.381369 -3544.794906    37.046347
0.108000  3691.080900  2835.532521 -1607.502930 -4185.799934 -1557.012355  3156.439900
