##TITLE=1D-13C-1-5-5-328-110-"no"-"yes"
##JCAMP-DX=5.01 $$ Magritek Spinsolve SPA1903 2.0.4.4423
##DATA TYPE=NMR FID
##DATA CLASS=NTUPLES
##ORIGIN=SPA1903 at Magritek
##OWNER=Copyright (C) 2025 by Magritek
##LONGDATE=2025/02/12 14:33:22.993
##.OBSERVE FREQUENCY=15.4861775226891
##.OBSERVE NUCLEUS=^13C
##.DELAY=( 20,  5000)
##.ACQUISITION MODE=SIMULTANEOUS
##.FIELD= 1.5
##.AVERAGES= 1
##.DIGITISER RES=16
##.SHIFT REFERENCE=(INTERNAL, Water, 4096, 0)
##$REFERENCE_POINT= 796.520    $$ Referencing label
$$      Distance of the zero axis position (in Hz) from the last data
$$      point (right edge); positive values -> right edge is below 0 Hz
##SPECTROMETER/DATA SYSTEM=Magritek
##SAMPLE DESCRIPTION=solvent=Water
$$ Bruker specific parameters
$$ --------------------------
##$AUNMP=   <proc_1d_nosref>
##$INSTRUM= <Magritek>
##$SI=      8192
##$TD=      8192
##$TDeff=   8192
##$SW=      322.868600
##$BF1=     15.4861775226891
##$SF=      15.4844740431616
##$LB=      0
##$PHC0=    217.6
##$PHC1=    0.0
##$REVERSE= yes
$$ End of Bruker specific parameters
$$ ---------------------------------
##NTUPLES=NMR FID
##VAR_NAME=        TIME,            FID/REAL,            FID/IMAG, PAGE NUMBER
##SYMBOL=             X,                   R,                   I,           N
##VAR_TYPE= INDEPENDENT,           DEPENDENT,           DEPENDENT,        PAGE
##VAR_FORM=        AFFN,                AFFN,                AFFN,        AFFN
##VAR_DIM=         8192,                8192,                8192,           2
##UNITS=        SECONDS,     ARBITRARY UNITS,     ARBITRARY UNITS,            
##FIRST=              0,                   0,                   0,           1
##LAST=    1.638199e+00,  0.0710136651341075,  0.0922131236158607,           2
##MIN=                0,   -52.8045825035181,   -51.5331772341959,           1
##MAX=     1.638199e+00,    51.9427658164765,    54.4305630590512,           2
##FACTOR=             1,                   1,                   1,           1
##PAGE=N=1
##DATA TABLE=(X++(R..R)), XYDATA
0.000000     0.000000    23.189699   -37.836145   -51.047216     2.888285    51.917862
0.001200    36.181243   -23.156148   -51.747753   -20.646609    32.678158    48.186608
0.002400    -0.813108   -47.665133   -36.667788    16.210970    46.601783    20.245705
0.003600   -32.937499   -48.430881    -5.513051    39.786857    37.507832   -12.045547
0.004800   -48.592760   -27.468412    27.674577    50.229417    12.912201   -43.003282
0.006000   -43.244767     7.680372    46.796082    28.882749   -24.077054   -52.543247
0.007200   -15.411527    42.609708    44.397287    -7.286392   -52.804583   -29.865097
0.008400    27.637208    51.685918    14.147238   -42.750199   -41.626676     7.426703
0.009600    49.641551    29.362111   -26.139576   -48.533953   -10.656438    37.109846
0.010800    40.299967    -1.204896   -44.803269   -32.746972    20.186843    46.061630
0.012000    17.355750   -31.235704   -44.792574    -2.083620    41.359416    32.582780
0.013200   -15.350246   -47.000666   -20.889961    31.549940    46.729244     5.513387
0.014400   -47.331797   -40.865597    15.334098    51.942766    22.877604   -34.584776
0.015600   -48.350606    -3.336673    42.686411    39.847173   -13.518698   -49.365763
0.016800   -21.259782    33.081870    46.434388     6.380836   -40.973041   -36.306103
0.018000    16.445836    45.032904    20.465530   -25.726317   -43.789319   -10.947172
0.019200    39.104297    37.332149    -8.108736   -42.402428   -26.777007    24.340920
0.020400    46.661699    14.434749   -38.225739   -44.280646     6.185174    48.805637
0.021600    32.794953   -22.968768   -51.662857   -16.409247    37.694543    43.659960
0.022800    -3.263374   -46.349746   -30.928751    23.251270    49.704190    16.326972
0.024000   -38.578126   -41.575809     5.448490    45.721182    32.070993   -20.314400
0.025200   -46.695320   -12.192313    34.897442    39.570212    -4.632310   -43.302875
0.026400   -28.490330    16.903769    43.606503    18.405758   -29.630673   -41.836672
0.027600    -2.380162    39.680904    33.876803   -14.476960   -45.228656   -21.768016
0.028800    26.420710    44.968991     6.539109   -40.428501   -39.374516     8.242766
0.030000    47.612455    25.154039   -30.501333   -48.565197    -6.837014    42.216855
0.031200    38.623917   -12.896421   -48.256074   -24.088474    26.872943    44.132356
0.032400     5.206991   -42.005182   -37.551234     7.774465    43.509716    23.475694
0.033600   -23.665296   -42.871017    -9.894932    33.362007    36.872496    -6.256967
0.034800   -42.091480   -26.637666    20.220029    42.224150    11.482070   -33.088898
0.036000   -42.461938    -1.065040    43.188155    29.548189   -19.250600   -46.787704
0.037200   -17.768624    33.303546    41.545019    -1.487680   -43.189802   -34.698477
0.038400    19.856329    48.013168    13.632565   -34.917066   -42.576650     1.641159
0.039600    43.616600    30.972436   -19.218676   -45.139806   -15.336901    33.130753
0.040800    40.055969    -1.256656   -41.685647   -30.337351    15.590279    42.134321
0.042000    18.468344   -27.572833   -38.364507    -5.791559    35.243149    33.598309
0.043200   -10.828959   -42.137582   -23.799443    23.768147    42.050399     7.831231
0.044400   -34.749582   -34.807258     7.333305    41.823488    25.054929   -23.017243
0.045600   -45.643158   -10.694152    35.631442    35.002914    -9.720943   -45.720131
0.046800   -25.086545    24.952429    44.888247     9.432131   -38.550317   -36.872858
0.048000     9.147464    43.291466    22.238637   -23.467111   -40.585119   -10.118710
0.049200    32.349091    33.140035    -5.657228   -36.400237   -25.411514    17.881481
0.050400    40.956807    12.825700   -28.654521   -36.977225    -1.535505    36.116956
0.051600    28.552013   -14.270530   -41.478440   -19.022162    28.564890    42.890330
0.052800     2.507603   -39.705999   -31.606476    13.736938    43.278983    19.749690
0.054000   -29.605271   -41.592311    -2.955621    42.023099    32.114988   -16.541170
0.055200   -43.728132   -18.319208    28.791521    38.571341     2.635281   -35.423747
0.056400   -31.801398    12.730502    42.236566    16.955840   -24.112290   -38.126965
0.057600    -7.713560    33.772778    33.729086    -8.146023   -38.727374   -23.059970
0.058800    19.888034    37.988731     9.293007   -32.847756   -36.897816     5.833514
0.060000    42.877501    26.072418   -21.957741   -42.284950   -12.218117    33.690539
0.061200    37.516807    -5.000777   -42.512420   -28.401600    21.397922    42.222750
0.062400    13.459354   -32.721151   -36.678269     6.626895    40.148841    27.110034
0.063600   -19.292067   -41.362657   -12.244871    29.118258    35.847197    -1.813619
0.064800   -37.064919   -24.739250    18.052655    39.716673    12.087100   -26.839330
0.066000   -35.919059    -3.890963    36.287678    30.502986   -10.350453   -38.927249
0.067200   -20.764150    24.339303    40.621467     5.152041   -34.825951   -30.842519
0.068400    12.465528    39.077094    21.445065   -23.432736   -39.780309    -5.272673
0.069600    35.975901    33.430456   -12.403027   -41.130910   -17.819038    25.416255
0.070800    37.481165     3.636026   -34.965450   -31.800195     9.759179    38.831579
0.072000    19.676211   -22.174916   -37.634166    -6.532071    31.298062    30.916671
0.073200    -5.542413   -36.510820   -21.853958    18.344234    37.351604    10.459346
0.074400   -32.784669   -33.175010     4.261891    36.183848    25.354045   -17.821073
0.075600   -39.088951   -14.009767    28.876231    35.983393    -3.667412   -39.166682
0.076800   -29.011636    18.689809    42.530006    12.839809   -28.731447   -37.664448
0.078000     0.213535    36.299153    25.719758   -18.261747   -38.555754   -13.727520
0.079200    26.826430    33.771322     0.929291   -34.125583   -25.024137    15.848440
0.080400    36.374619    16.026978   -22.862591   -33.510170    -4.184624    33.672390
0.081600    26.505443   -10.817763   -35.769903   -20.610235    20.913193    36.166297
0.082800     6.606925   -30.170700   -31.912084     8.044521    38.875056    21.395771
0.084000   -20.248748   -37.201242    -8.397072    33.244782    35.303313    -7.069876
0.085200   -37.607045   -20.870644    22.569107    38.412664     8.820660   -31.404036
0.086400   -32.057982     8.706385    37.557157    21.230230   -18.654393   -35.348192
0.087600    -6.556426    28.654786    31.020021    -3.948137   -34.230029   -20.248212
0.088800    15.839394    36.279490    11.684391   -24.783853   -30.912570     0.020342
0.090000    32.452230    25.750924   -13.374339   -36.419569   -13.549727    25.898031
0.091200    35.701482     2.815770   -35.444717   -30.099124    13.811995    38.063792
0.092400    15.852484   -27.272748   -36.570253    -2.801652    36.768735    27.856603
0.093600   -15.059370   -39.643160   -17.725097    22.509445    33.895646     4.147434
0.094800   -31.831303   -27.899349    10.959300    34.113153    14.702499   -21.358637
0.096000   -34.493548    -4.759374    29.915885    26.320719    -5.730891   -32.102278
0.097200   -20.292279    17.482666    34.816512     9.129219   -28.199581   -30.489945
0.098400     3.556209    34.627015    22.514040   -18.022202   -37.009184   -10.376300
0.099600    28.684202    34.257327    -5.320985   -37.657449   -22.534027    18.197417
0.100800    36.956327     9.747399   -32.178357   -34.085563     3.785381    34.102090
0.102000    21.270912   -19.123463   -34.605695    -8.418604    25.483042    29.460354
0.103200    -1.297016   -31.068393   -25.393105    13.789205    32.717793    10.838034
0.104400   -21.051727   -30.938543    -2.306551    30.388756    23.296078   -11.313442
0.105600   -35.050308   -16.818771    20.554511    31.833640     3.559720   -31.721798
0.106800   -28.322957    10.866281    35.050126    15.863621   -22.627138   -36.236895
0.108000    -3.671608    34.252957    29.133288   -11.549851   -35.566710   -16.346639
