##TITLE=1D-13C-1-2-5-328-110-"no"-"yes"
##JCAMP-DX=5.01 $$ Magritek Spinsolve SPA1903 2.0.4.4423
##DATA TYPE=NMR FID
##DATA CLASS=NTUPLES
##ORIGIN=SPA1903 at Magritek
##OWNER=Copyright (C) 2025 by Magritek
##LONGDATE=2025/03/17 11:57:16.440
##.OBSERVE FREQUENCY=15.4860999900848
##.OBSERVE NUCLEUS=^13C
##.DELAY=( 20,  2000)
##.ACQUISITION MODE=SIMULTANEOUS
##.FIELD= 1.5
##.AVERAGES= 1
##.DIGITISER RES=16
##.SHIFT REFERENCE=(INTERNAL, Water, 4096, 0)
##$REFERENCE_POINT= 796.529    $$ Referencing label
$$      Distance of the zero axis position (in Hz) from the last data
$$      point (right edge); positive values -> right edge is below 0 Hz
##SPECTROMETER/DATA SYSTEM=Magritek
##SAMPLE DESCRIPTION=solvent=Water
$$ Bruker specific parameters
$$ --------------------------
##$AUNMP=   <proc_1d_nosref>
##$INSTRUM= <Magritek>
##$SI=      8192
##$TD=      8192
##$TDeff=   8192
##$SW=      322.870200
##$BF1=     15.4860999900848
##$SF=      15.4843965190859
##$LB=      0
##$PHC0=    217.2
##$PHC1=    0.0
##$REVERSE= yes
$$ End of Bruker specific parameters
$$ ---------------------------------
##NTUPLES=NMR FID
##VAR_NAME=        TIME,            FID/REAL,            FID/IMAG, PAGE NUMBER
##SYMBOL=             X,                   R,                   I,           N
##VAR_TYPE= INDEPENDENT,           DEPENDENT,           DEPENDENT,        PAGE
##VAR_FORM=        AFFN,                AFFN,                AFFN,        AFFN
##VAR_DIM=         8192,                8192,                8192,           2
##UNITS=        SECONDS,     ARBITRARY UNITS,     ARBITRARY UNITS,            
##FIRST=              0,                   0,                   0,           1
##LAST=    1.638199e+00,   0.357255845019681,  -0.212724349675033,           2
##MIN=                0,   -10854.4958722184,   -10269.7513879706,           1
##MAX=     1.638199e+00,    10468.3297165648,    11277.4205730353,           2
##FACTOR=             1,                   1,                   1,           1
##PAGE=N=1
##DATA TABLE=(X++(R..R)), XYDATA
0.000000     0.000000  4534.756919 -8276.871519 -10511.915081   482.729840 10468.329717
0.001200  7520.923141 -4594.741498 -10854.495872 -3703.976907  7788.051620  9487.853919
0.002400  -326.549370 -9435.082108 -7000.522337  3730.601280  9829.712541  4062.808791
0.003600 -6548.389136 -9198.918478  -737.984005  8597.226227  7542.612083 -2638.054965
0.004800 -9718.796017 -5052.978167  5905.426132  9790.740347  1630.161476 -8695.211813
0.006000 -8380.100768  2355.261870 10291.505347  5500.810193 -6167.490608 -10255.156143
0.007200 -1601.176773  9092.569922  8482.207512 -2691.727150 -10465.632345 -5176.214789
0.008400  6467.789842  9953.267705  1127.365506 -8911.359663 -7847.019822  2795.452588
0.009600  9825.507931  4709.093405 -6034.669843 -9187.539253 -1120.861045  8079.433133
0.010800  7316.193125 -2179.796603 -8898.703805 -4854.400251  5013.139202  8763.141899
0.012000  1893.441738 -7232.048437 -7588.740314  1204.843755  8569.218633  5625.866875
0.013200 -4244.821497 -9125.778448 -2811.660040  7148.546642  8386.466096  -791.620384
0.014400 -9077.528179 -6183.326146  4430.161542  9675.419136  2889.629822 -7618.634493
0.015600 -8625.466121  1201.936674  9447.962537  5827.456061 -4933.874669 -9422.132266
0.016800 -2251.877630  7562.028390  7907.567067 -1467.287277 -8809.128091 -5189.571207
0.018000  4593.654808  8500.848077  2133.101550 -6593.124842 -7276.487588   752.484134
0.019200  7796.172395  5398.895351 -3482.584045 -8125.401188 -2985.438901  5763.861083
0.020400  7635.466760   250.349904 -7609.016491 -6286.728799  2863.283130  8658.787306
0.021600  3797.401793 -5879.513511 -8398.162214  -476.733429  8143.672579  6686.344242
0.022800 -3152.789452 -9124.345935 -3717.671474  6330.549006  8447.025155    24.985517
0.024000 -8334.670100 -6260.770665  3490.774091  8771.784487  3203.794292 -6169.720389
0.025200 -7814.690450   110.556462  7719.985370  5766.086325 -3121.603544 -8005.619098
0.026400 -3155.978792  5365.010613  7308.225745   468.702697 -6890.996800 -5904.275427
0.027600  2232.123048  7642.199172  3789.770288 -4628.873970 -7484.223242 -1297.422157
0.028800  6587.909980  6560.605376 -1585.198644 -7951.621316 -4534.546970  4579.642435
0.030000  8099.727926  1611.036605 -6961.198102 -6997.678508  1717.362249  8409.556317
0.031200  4595.893493 -5016.843973 -8294.600452 -1189.582419  7274.934210  6624.534644
0.032400 -2169.905895 -8155.330057 -3992.875083  5010.003443  7639.879727   840.812593
0.033600 -6738.924923 -5912.168289  1959.667068  7224.342281  3739.736496 -4140.656978
0.034800 -6939.204698 -1379.333605  5759.448498  5910.340550 -1006.600916 -6700.341768
0.036000 -4382.101276  3262.072633  7104.585161  2324.623799 -5463.690801 -6671.439335
0.037200   392.503502  7122.270062  5095.280825 -3331.000784 -7742.279718 -2514.433446
0.038400  5939.623187  7029.161043  -701.020844 -7566.072851 -4931.658577  3846.826797
0.039600  7734.558700  1959.109970 -6127.191652 -6483.523981  1124.881660  7161.874404
0.040800  4303.640334 -3729.786346 -7008.100580 -1685.283057  5502.463731  5839.653486
0.042000  -824.569251 -6320.065904 -4158.905148  2932.035524  6443.427136  2182.371986
0.043200 -4705.186943 -5895.418575    49.101293  5921.191017  4661.203173 -2268.834445
0.044400 -6564.312433 -2897.406977  4455.961287  6445.048039   433.023269 -6208.697598
0.045600 -5197.766565  2272.278323  7010.292643  3102.154099 -4746.832410 -6763.648594
0.046800  -286.342322  6589.352058  5174.434376 -2686.557709 -7099.438235 -2674.857361
0.048000  4975.874947  6383.621719  -110.174834 -6372.137326 -4651.637207  2738.305555
0.049200  6534.772039  2281.631038 -4538.194724 -5699.372252   -23.912641  5551.995001
0.050400  4379.796485 -2027.330902 -5899.523975 -2651.866415  3708.239476  5595.118505
0.051600   805.320188 -5004.116585 -4890.400466  1195.987035  5994.352679  3500.468133
0.052800 -3415.004405 -6259.072541 -1372.030927  5346.311601  5538.149803 -1215.294603
0.054000 -6585.750894 -3751.506283  3855.017205  6670.041033  1097.646486 -5836.905878
0.055200 -5415.603390  1750.812974  6626.731754  3211.157528 -4087.406497 -6184.051268
0.056400  -649.577346  5516.819886  4781.552259 -1724.060063 -5926.389995 -2871.370944
0.057600  3504.988798  5508.715917   921.708269 -4670.867625 -4639.667734   947.199079
0.058800  5391.001413  3339.810835 -2739.308301 -5539.706391 -1679.773794  4278.872813
0.060000  5160.127009  -280.934454 -5546.931013 -4050.682849  2559.576524  6098.546214
0.061200  2070.370764 -4581.497681 -5611.065024   323.248278  5947.531097  4195.310977
0.062400 -2873.496372 -6368.113310 -1854.754616  4923.755180  5485.336201  -728.790937
0.063600 -5930.534635 -3760.665014  3018.285435  5980.485830  1511.554838 -4700.081569
0.064800 -4964.410190   796.288486  5369.750908  3366.509409 -2593.769568 -5319.758906
0.066000 -1626.050927  3958.468971  4701.696336  -208.747899 -4780.608218 -3602.543968
0.067200  1858.591039  5135.177985  2277.578120 -3418.069125 -5069.354734  -506.993486
0.068400  4805.851052  4284.795162 -1579.426520 -5612.373309 -2738.073716  3634.767451
0.069600  5598.364794   537.289670 -5289.049842 -4503.015710  1974.469716  5968.851041
0.070800  2450.408671 -4096.524043 -5445.786538    -3.125020  5326.819528  3949.664475
0.072000 -2249.190906 -5507.773950 -1931.375356  3864.609502  4752.466554  -105.700109
0.073200 -4633.116520 -3479.922059  1752.246351  4768.962044  2079.801810 -3044.875541
0.074400 -4493.307378  -556.347033  4048.549088  3806.572879 -1011.561360 -4682.964583
0.075600 -2751.390709  2617.643319  4939.842035  1171.018399 -4186.976386 -4426.089290
0.076800   878.659621  5165.736677  3062.762281 -2899.254827 -5326.590313 -1091.152337
0.078000  4586.236883  4517.955396 -1249.098116 -5388.156675 -2740.859359  3230.319893
0.079200  5110.977475   674.952410 -4520.253160 -4060.285260  1390.458029  4997.294237
0.080400  2367.742451 -3024.109459 -4562.533685  -602.982191  3946.359652  3685.180803
0.081600  -974.470421 -4395.047452 -2477.724321  2383.734270  4316.508340  1089.431862
0.082800 -3408.991343 -3860.688240   315.593356  4204.950848  3050.619272 -1899.583552
0.084000 -4631.604727 -1696.978267  3409.995703  4408.163648   -55.746731 -4570.506104
0.085200 -3474.690649  2034.445708  5098.740772  1766.077939 -3837.799925 -4628.362131
0.086400   394.445719  4901.772261  3242.930054 -2436.666903 -4992.300504 -1309.016378
0.087600  3909.713675  4167.926754  -690.220670 -4528.438055 -2719.837437  2291.358445
0.088800  4341.309952  1143.788858 -3271.991810 -3674.600764   260.968229  3808.440684
0.090000  2797.051976 -1525.969748 -4014.715865 -1724.279071  2636.117382  3908.806827
0.091200   494.699688 -3642.661166 -3456.130289  1053.625131  4426.351378  2348.216659
0.092400 -2729.687970 -4496.784449  -657.913064  4093.822328  3804.426680 -1302.315832
0.093600 -4852.643918 -2279.276602  3183.439193  4581.298032   229.118497 -4307.774813
0.094800 -3429.316499  1651.438908  4595.084611  1822.375023 -3125.565741 -4089.342266
0.096000   -21.117016  3897.476195  2966.855519 -1439.816680 -3976.879906 -1727.437650
0.097200  2527.765752  3695.243576   420.739296 -3314.083260 -3032.845322   849.729433
0.098400  3694.789653  2142.926808 -2007.826548 -3829.787765 -1012.662484  3148.045787
0.099600  3511.427750  -476.615624 -3955.314137 -2601.523771  2017.782931  4241.971043
0.100800  1198.050479 -3432.516353 -3828.815629   619.601347  4333.327618  2594.918885
0.102000 -2404.273649 -4361.150602  -845.487129  3687.731083  3564.049822  -989.172356
0.103200 -4219.853570 -2146.360198  2505.825026  3926.571301   503.657553 -3385.111958
0.104400 -3024.953727   932.773766  3603.615408  1900.197959 -1983.954104 -3410.552332
0.105600  -768.711357  2729.443955  2950.096200  -325.240911 -3203.138321 -2290.919793
0.106800  1379.073459  3504.764461  1417.230775 -2522.189777 -3480.194189  -100.608310
0.108000  3514.987019  2814.455326 -1438.982821 -3998.291231 -1583.657848  2910.431309
