##TITLE=1D-13C-1-5-5-328-110-"no"-"yes"
##JCAMP-DX=5.01 $$ Magritek Spinsolve SPA1903 2.0.4.4423
##DATA TYPE=NMR FID
##DATA CLASS=NTUPLES
##ORIGIN=SPA1903 at Magritek
##OWNER=Copyright (C) 2025 by Magritek
##LONGDATE=2025/02/12 14:31:07.205
##.OBSERVE FREQUENCY=15.4861775226891
##.OBSERVE NUCLEUS=^13C
##.DELAY=( 20,  5000)
##.ACQUISITION MODE=SIMULTANEOUS
##.FIELD= 1.5
##.AVERAGES= 1
##.DIGITISER RES=16
##.SHIFT REFERENCE=(INTERNAL, Water, 4096, 0)
##$REFERENCE_POINT= 796.520    $$ Referencing label
$$      Distance of the zero axis position (in Hz) from the last data
$$      point (right edge); positive values -> right edge is below 0 Hz
##SPECTROMETER/DATA SYSTEM=Magritek
##SAMPLE DESCRIPTION=solvent=Water
$$ Bruker specific parameters
$$ --------------------------
##$AUNMP=   <proc_1d_nosref>
##$INSTRUM= <Magritek>
##$SI=      8192
##$TD=      8192
##$TDeff=   8192
##$SW=      322.868600
##$BF1=     15.4861775226891
##$SF=      15.4844740431616
##$LB=      0
##$PHC0=    217.4
##$PHC1=    0.0
##$REVERSE= yes
$$ End of Bruker specific parameters
$$ ---------------------------------
##NTUPLES=NMR FID
##VAR_NAME=        TIME,            FID/REAL,            FID/IMAG, PAGE NUMBER
##SYMBOL=             X,                   R,                   I,           N
##VAR_TYPE= INDEPENDENT,           DEPENDENT,           DEPENDENT,        PAGE
##VAR_FORM=        AFFN,                AFFN,                AFFN,        AFFN
##VAR_DIM=         8192,                8192,                8192,           2
##UNITS=        SECONDS,     ARBITRARY UNITS,     ARBITRARY UNITS,            
##FIRST=              0,                   0,                   0,           1
##LAST=    1.638199e+00, -0.0736758669157293,  -0.163432640677421,           2
##MIN=                0,   -534.479954548564,   -519.984110318963,           1
##MAX=     1.638199e+00,    510.674396206741,    550.927072352203,           2
##FACTOR=             1,                   1,                   1,           1
##PAGE=N=1
##DATA TABLE=(X++(R..R)), XYDATA
0.000000     0.000000   227.089864  -395.242505  -518.598957    11.880562   507.893464
0.001200   377.984716  -214.652246  -534.479955  -198.305515   370.279096   476.645456
0.002400     1.253285  -464.052224  -362.792478   169.326749   494.049628   217.370514
0.003600  -317.877345  -465.292845   -51.818107   423.630973   386.684489  -116.525070
0.004800  -482.637866  -266.877237   279.090037   489.141956    98.986759  -422.741227
0.006000  -428.214712    96.690386   505.769900   293.596488  -280.889797  -517.818135
0.007200  -113.339146   435.594638   442.949824   -99.076721  -515.309483  -291.851966
0.008400   289.220575   510.674396   101.725392  -427.869811  -423.704743    99.171601
0.009600   493.457362   282.457182  -271.108634  -483.811811  -104.378469   393.183420
0.010800   407.936748   -65.814710  -454.350241  -292.037358   225.234883   469.089510
0.012000   144.351034  -351.411275  -422.650492    20.885673   442.283204   328.609711
0.013200  -186.939918  -483.623398  -188.444853   345.886238   455.721437     2.861821
0.014400  -458.641978  -357.446640   185.866320   502.237922   201.044476  -356.260406
0.015600  -474.482190     1.464292   470.206690   349.616362  -201.044863  -495.596326
0.016800  -180.577079   352.039424   446.736762    -6.369748  -444.284330  -332.970441
0.018000   179.196708   461.336223   184.519738  -307.743030  -425.817230   -30.723297
0.019200   402.021586   344.925263  -130.890892  -443.650798  -222.163706   270.280676
0.020400   438.929416    76.645898  -387.132810  -381.775779    94.996171   460.471177
0.021600   263.751513  -264.035084  -472.310343   -93.564832   403.655707   404.366668
0.022800   -97.519074  -481.852781  -268.990224   277.645343   476.321443    86.722335
0.024000  -407.482658  -393.981281   102.311071   466.202676   256.661263  -265.369112
0.025200  -455.368970   -89.823117   379.570244   380.412815   -80.785729  -433.437979
0.026400  -260.102114   222.992075   435.771982   117.358629  -343.731078  -390.248940
0.027600    36.506776   419.700068   293.114828  -191.679740  -443.413724  -157.559598
0.028800   327.705051   414.993876    -6.948957  -427.732647  -321.875532   183.524801
0.030000   466.108001   177.169957  -334.808891  -432.310503     5.088432   439.279413
0.031200   330.514639  -193.738595  -470.203120  -163.554617   340.103542   419.458604
0.032400   -13.041146  -423.074730  -312.922848   180.300197   442.122708   161.385503
0.033600  -311.826412  -397.813921    -6.716206   382.594992   309.924208  -135.513237
0.034800  -416.612571  -194.062067   261.564931   400.163315    53.019275  -361.047270
0.036000  -341.709662    94.879311   424.563926   237.822966  -251.383265  -433.264574
0.037200   -82.771576   373.068952   375.663362   -92.574763  -450.011268  -249.728515
0.038400   264.617320   449.222517    75.119316  -390.421538  -369.195747   110.277137
0.039600   445.487094   227.116737  -266.094723  -424.361063   -65.439015   367.735077
0.040800   343.953676   -98.922779  -411.846689  -222.117758   231.796081   397.070959
0.042000    82.962239  -323.942031  -338.053566    55.592529   384.044234   248.392860
0.043200  -186.449206  -400.539387  -124.472771   304.519850   363.987245   -16.310709
0.044400  -382.480790  -282.687249   171.385303   421.854677   153.202045  -310.202074
0.045600  -391.112779    12.625457   402.480190   297.598240  -177.754155  -433.867100
0.046800  -149.732380   319.168389   389.233257   -21.902602  -402.112617  -282.997439
0.048000   178.070198   414.623798   142.076878  -304.252364  -369.522988    15.906242
0.049200   376.396246   271.373550  -155.986865  -388.607282  -152.622831   264.094783
0.050400   360.008762    21.360593  -342.240245  -290.431895   110.327317   379.895866
0.051600   191.312055  -237.273817  -382.328340   -61.707337   344.483719   329.099146
0.052800   -93.659893  -406.669693  -220.954955   241.928988   408.801422    69.450170
0.054000  -360.738339  -342.150838   104.295738   419.903558   212.138412  -256.676945
0.055200  -403.609882   -51.472800   356.930013   320.593668  -106.439514  -397.081312
0.056400  -197.843844   237.946690   377.427270    59.884229  -321.369754  -309.969945
0.057600    73.973349   361.146859   211.568606  -192.658020  -365.457064   -96.858586
0.058800   292.136053   329.375642   -36.162598  -358.401579  -249.641802   166.131363
0.060000   388.118307   132.689930  -288.851368  -359.049541    15.751064   375.776036
0.061200   272.179233  -170.304977  -407.119094  -140.607428   298.516319   368.549076
0.062400   -20.548898  -384.562925  -269.587788   178.767205   399.906547   131.057785
0.063600  -293.653244  -352.628760    22.090724   365.907121   259.417558  -160.745597
0.064800  -376.133796  -131.960044   264.579028   339.405384     3.950618  -332.378044
0.066000  -265.747004   122.252332   363.852085   161.999684  -237.491201  -348.679512
0.067200   -36.959883   319.365378   292.261227   -94.523744  -372.478673  -190.832198
0.068400   228.872014   371.413992    54.958591  -331.155138  -310.685285    93.897801
0.069600   387.395115   199.895856  -239.349574  -380.871123   -48.990620   337.767800
0.070800   302.656542  -103.110487  -379.438532  -184.741765   230.986472   356.959455
0.072000    45.277061  -314.771545  -287.476980    84.740520   346.457395   187.119050
0.073200  -195.894696  -339.100681   -75.935800   276.430274   297.030969   -44.677218
0.074400  -336.357562  -219.150974   166.058917   353.050467   109.314252  -270.321384
0.075600  -324.061153    21.508692   348.469406   247.586454  -165.003258  -378.058133
0.076800  -120.515274   286.207557   339.925845   -26.859052  -361.113273  -246.382869
0.078000   172.331289   376.236508   112.386893  -287.949339  -325.526916    34.891805
0.079200   345.968560   230.618206  -163.172651  -352.457473  -111.421398   258.467194
0.080400   307.014496   -18.685598  -314.542915  -230.219744   130.240190   332.414621
0.081600   132.122976  -228.729077  -315.837000   -17.752716   302.755174   256.423113
0.082800   -99.216966  -339.025656  -164.776712   214.887220   338.902175    45.640246
0.084000  -309.166113  -280.925345    94.344258   356.166428   180.991968  -221.177975
0.085200  -351.075966   -45.734363   317.578487   286.476341   -98.328922  -357.517775
0.086400  -171.643280   222.739502   340.777911    38.144774  -305.114767  -271.404630
0.087600    92.833915   336.149591   167.519840  -201.647868  -320.024137   -53.197127
0.088800   271.131251   266.154098   -59.745792  -311.031982  -188.998536   164.125848
0.090000   321.937867    88.724427  -253.799693  -294.415343    26.070853   318.211175
0.091200   224.119259  -149.344374  -343.905190  -116.998201   262.078972   320.430961
0.092400   -22.127834  -338.517458  -233.155941   160.317309   355.221848   109.757205
0.093600  -273.997860  -314.997293    35.685273   333.276163   218.023229  -162.361239
0.094800  -336.026021   -98.388260   253.638453   292.675211   -25.646405  -306.013703
0.096000  -210.810323   133.606313   309.728002   113.242760  -216.133538  -286.518912
0.097200    -9.669560   281.353307   232.411998  -101.008822  -311.606034  -146.104780
0.098400   197.244833   305.853635    40.009401  -283.295050  -261.047567    85.796748
0.099600   328.495062   166.171193  -205.059403  -324.034503   -41.991869   293.489892
0.100800   267.944260   -90.707101  -338.306750  -167.275860   211.162411   322.919593
0.102000    36.117424  -292.493935  -255.863116    95.060457   324.398157   153.689694
0.103200  -200.711940  -304.450215   -39.173854   267.454426   242.107774   -73.365810
0.104400  -295.673239  -160.653764   166.322218   290.254676    62.983107  -240.609273
0.105600  -253.500105    40.322253   288.761928   188.364166  -143.375510  -305.243698
0.106800   -94.238297   238.231714   281.890593   -24.912576  -305.174149  -208.268665
0.108000   149.810599   323.337732    97.158000  -250.623318  -287.781819    33.247241
