##TITLE=1D-13C-1-2-5-328-110-"no"-"yes"
##JCAMP-DX=5.01 $$ Magritek Spinsolve SPA1903 2.0.4.4423
##DATA TYPE=NMR FID
##DATA CLASS=NTUPLES
##ORIGIN=SPA1903 at Magritek
##OWNER=Copyright (C) 2025 by Magritek
##LONGDATE=2025/03/17 11:56:20.153
##.OBSERVE FREQUENCY=15.4860999900848
##.OBSERVE NUCLEUS=^13C
##.DELAY=( 20,  2000)
##.ACQUISITION MODE=SIMULTANEOUS
##.FIELD= 1.5
##.AVERAGES= 1
##.DIGITISER RES=16
##.SHIFT REFERENCE=(INTERNAL, Water, 4096, 0)
##$REFERENCE_POINT= 796.529    $$ Referencing label
$$      Distance of the zero axis position (in Hz) from the last data
$$      point (right edge); positive values -> right edge is below 0 Hz
##SPECTROMETER/DATA SYSTEM=Magritek
##SAMPLE DESCRIPTION=solvent=Water
$$ Bruker specific parameters
$$ --------------------------
##$AUNMP=   <proc_1d_nosref>
##$INSTRUM= <Magritek>
##$SI=      8192
##$TD=      8192
##$TDeff=   8192
##$SW=      322.870200
##$BF1=     15.4860999900848
##$SF=      15.4843965190859
##$LB=      0
##$PHC0=    217.5
##$PHC1=    0.0
##$REVERSE= yes
$$ End of Bruker specific parameters
$$ ---------------------------------
##NTUPLES=NMR FID
##VAR_NAME=        TIME,            FID/REAL,            FID/IMAG, PAGE NUMBER
##SYMBOL=             X,                   R,                   I,           N
##VAR_TYPE= INDEPENDENT,           DEPENDENT,           DEPENDENT,        PAGE
##VAR_FORM=        AFFN,                AFFN,                AFFN,        AFFN
##VAR_DIM=         8192,                8192,                8192,           2
##UNITS=        SECONDS,     ARBITRARY UNITS,     ARBITRARY UNITS,            
##FIRST=              0,                   0,                   0,           1
##LAST=    1.638199e+00,  -0.782692629272978,   0.270497067862379,           2
##MIN=                0,   -17481.4692693958,   -16533.6993472292,           1
##MAX=     1.638199e+00,    16736.7746045755,    18084.1422276335,           2
##FACTOR=             1,                   1,                   1,           1
##PAGE=N=1
##DATA TABLE=(X++(R..R)), XYDATA
0.000000     0.000000  7223.759181 -13410.775584 -16840.868778   820.559140 16736.774605
0.001200 12083.123427 -7293.576656 -17481.469269 -6047.073408 12543.199645 15314.116963
0.002400  -544.770287 -15208.713540 -11265.363685  6022.246759 15846.246133  6521.188453
0.003600 -10624.270461 -14808.864217 -1017.899709 13900.212435 11960.160149 -4394.570316
0.004800 -15538.238571 -7905.843417  9581.491669 15578.736870  2335.337171 -14009.027223
0.006000 -13096.506734  4050.928217 16221.605887  8386.746672 -9839.090781 -16001.320108
0.007200 -2336.851612 14330.595911 13192.314798 -4399.296039 -16425.213263 -7925.515524
0.008400 10247.455230 15466.681726  1610.330395 -13956.758385 -12186.123314  4460.667223
0.009600 15383.764943  7285.613048 -9567.224614 -14333.590186 -1573.085734 12702.171018
0.010800 11346.313740 -3582.431555 -13974.617884 -7418.606588  8073.234310 13650.818593
0.012000  2585.159397 -11471.727785 -11533.367264  2247.482118 13297.595807  8394.526002
0.013200 -6842.526954 -14033.657479 -3947.312695 11272.699665 12626.346076 -1674.307000
0.014400 -13916.425878 -9062.084535  7023.403966 14654.366169  4093.362162 -11803.392682
0.015600 -12977.357948  2187.030401 14439.943546  8532.069246 -7764.352472 -14209.514485
0.016800 -3134.890223 11657.604827 11902.504879 -2563.531477 -13519.228002 -7563.713597
0.018000  7322.569547 12807.052475  2848.094146 -10195.025417 -10847.156186  1519.369936
0.019200 11981.427821  7851.731382 -5747.781079 -12250.866664 -3984.269150  8999.487500
0.020400 11212.200816  -108.775360 -11559.003740 -9059.518751  4755.569509 12956.137847
0.021600  5150.866249 -9160.464489 -12234.523369  -154.763124 12256.015333  9555.001494
0.022800 -5113.884728 -13528.881349 -5046.958046  9761.174371 12301.278887  -493.043339
0.024000 -12488.683657 -8883.064589  5567.904841 12930.665926  4323.339779 -9443.376651
0.025200 -11408.695849   648.317500 11648.092792  8152.695667 -5109.849553 -11802.790116
0.026400 -4182.291902  8247.563618 10608.312573   176.704293 -10436.476069 -8331.278980
0.027600  3894.941392 11271.145385  4961.639836 -7228.809254 -10706.235079 -1304.036161
0.028800  9869.831104  9190.963163 -2914.291578 -11638.438942 -5989.401446  7107.619402
0.030000 11471.721177  1751.402177 -10247.369204 -9766.537027  2944.584187 12222.962322
0.031200  6170.404876 -7693.978935 -11789.284334 -1145.839563 10702.555129  9198.680493
0.032400 -3568.234176 -11817.810016 -5361.593139  7689.689939 10929.756346   598.942960
0.033600 -10035.135128 -8096.662748  3402.886652 10419.509131  4858.568728 -6412.777923
0.034800 -9828.909217 -1328.784577  8627.721237  8018.926070 -2115.826269 -9567.509940
0.036000 -5623.371485  5098.495530  9886.899805  2689.652548 -8056.351807 -9066.033079
0.037200  1195.727634 10124.064979  6600.683377 -5159.350920 -10705.315530 -2990.792610
0.038400  8629.010095  9568.350492 -1556.157519 -10773.209290 -6414.641781  5921.433842
0.039600 10695.864236  2137.241824 -8882.220039 -8739.576513  2141.595444 10174.369581
0.040800  5528.809533 -5790.213417 -9695.921467 -1669.113556  8061.432887  7734.620311
0.042000 -1804.593195 -8898.823302 -5240.708213  4643.303471  8874.099330  2336.994993
0.043200 -6987.969932 -7740.063795   830.430698  8291.503088  5800.234487 -3692.439810
0.044400 -8898.823343 -3315.902234  6553.844074  8472.748593  -163.718473 -8650.678443
0.045600 -6470.104508  3680.527888  9405.584424  3604.014598 -6844.493411 -8914.417540
0.046800   293.662124  9195.198619  6475.470981 -4282.729122 -9535.272515 -2990.481316
0.048000  7147.681873  8414.682003  -793.018099 -8970.388051 -5820.392150  4466.701587
0.049200  8855.249395  2323.489828 -6666.551625 -7359.169165   726.052277  7793.606849
0.050400  5370.709182 -3517.065619 -7961.082431 -2728.901593  5577.438819  7098.183442
0.051600   249.304179 -6935.608208 -5948.866895  2305.106944  7987.863477  3933.902041
0.052800 -5097.163931 -7988.694400 -1055.101439  7332.788248  6834.664473 -2228.391992
0.054000 -8773.067225 -4389.323910  5678.696187  8679.115057   705.260710 -8132.380652
0.055200 -6703.740709  3054.850511  8870.674252  3605.100119 -6026.478922 -8035.112773
0.056400   -73.820891  7784.393192  5848.168891 -3140.165010 -7949.024753 -3010.511474
0.057600  5290.173059  7005.077790   382.424488 -6560.006492 -5585.236097  2075.706299
0.058800  7171.352345  3592.901843 -4237.655521 -6952.382916 -1394.180610  5924.750733
0.060000  6271.399639 -1085.040313 -7369.092874 -4602.422886  3992.521193  7707.269845
0.061200  1904.786445 -6275.845637 -6837.644531  1058.983870  7859.696927  4910.410141
0.062400 -4365.242559 -8189.022407 -1650.200406  6840.898467  6682.418842 -1668.361231
0.063600 -7840.226015 -4319.280239  4557.801541  7715.934503  1202.982969 -6628.881456
0.064800 -6010.564068  1866.324687  7126.237372  3686.204762 -4040.566122 -6772.681341
0.066000 -1288.974365  5671.358261  5584.338767 -1205.433184 -6291.414955 -3820.284128
0.067200  3050.669360  6323.407472  2122.289973 -4765.811820 -6020.607779   140.804778
0.068400  6260.481851  4746.423201 -2620.016526 -6898.800412 -2769.650688  4934.018186
0.069600  6715.645534    52.553206 -6882.693646 -5198.743906  3114.673138  7511.836386
0.070800  2430.877510 -5657.703999 -6592.886356   714.960249  7042.252788  4477.497987
0.072000 -3607.683296 -6984.744563 -1624.785424  5490.478148  5592.600935 -1033.452432
0.073200 -6086.215547 -3691.889777  2971.440514  5909.880209  1754.312015 -4402.237621
0.074400 -5163.746072   240.648949  5232.498911  3970.110193 -1947.022709 -5620.577813
0.075600 -2666.305845  3672.099050  5750.215483   693.994332 -5410.545421 -4864.672515
0.076800  1750.144174  6271.803575  3107.673819 -4016.806118 -6315.561923  -654.222495
0.078000  5998.443012  5074.748573 -2284.682396 -6658.986597 -2660.737007  4527.336452
0.079200  6037.534895    82.266650 -5969.933118 -4530.223744  2569.469620  6257.460528
0.080400  2069.304770 -4404.299465 -5257.004198   143.945602  5182.503450  3944.548994
0.081600 -2028.752772 -5470.307437 -2192.666500  3629.158701  4898.932081   371.019701
0.082800 -4447.030665 -4024.551504  1156.198028  5082.860684  2926.360630 -2896.036070
0.084000 -5284.261518 -1221.327611  4390.017873  4743.509173  -722.442848 -5509.915336
0.085200 -3590.161491  2965.433593  5992.420747  1446.808806 -5012.372667 -5175.819980
0.086400  1166.518293  6043.275394  3347.360958 -3545.543409 -5984.064855  -894.072004
0.087600  5267.841431  4699.041779 -1706.703497 -5749.770142 -2571.898110  3548.971405
0.088800  5073.447059   491.115747 -4442.872192 -3922.129463  1219.403999  4746.232699
0.090000  2544.373632 -2577.158558 -4519.031989 -1151.920207  3485.243353  4076.211445
0.091200  -133.472437 -4369.592462 -3451.072505  1813.117866  5029.029419  2071.268676
0.092400 -3530.247474 -4894.535602  -219.403894  4925.118226  4069.947940 -2053.829175
0.093600 -5750.592483 -2112.929158  4243.236392  5132.838771  -415.741190 -5320.763922
0.094800 -3580.489933  2564.447090  5493.332200  1521.720391 -4302.150556 -4563.889097
0.096000   839.902334  4898.517891  2846.406240 -2420.829318 -4598.228225 -1270.714842
0.097200  3508.695946  3970.249229  -381.540029 -4118.720675 -2824.080701  1693.629637
0.098400  4099.590275  1726.909738 -2716.660139 -4037.645702  -449.325203  3815.741874
0.099600  3445.856211 -1160.855311 -4384.380271 -2315.928948  2631.707924  4521.204209
0.100800   828.583681 -4092.035121 -3980.342363  1242.975954  4968.115623  2414.031697
0.102000 -3183.592285 -4776.014434  -384.850673  4491.662681  3724.517364 -1739.908157
0.103200 -4961.480885 -1874.711699  3489.367299  4311.646035  -224.913120 -4254.089577
0.104400 -2925.566919  1849.147269  4166.638665  1390.830526 -2918.241239 -3558.493268
0.105600    50.143938  3418.708804  2624.564881 -1150.323410 -3461.942195 -1770.005652
0.106800  1995.291283  3521.891494   848.442380 -3006.831151 -3296.295960   497.308367
0.108000  3775.679655  2491.467137 -1932.501260 -4170.484478 -1248.973676  3461.572096
