##TITLE=1D-13C-1-2-5-328-110-"no"-"yes"
##JCAMP-DX=5.01 $$ Magritek Spinsolve SPA1903 2.0.4.4423
##DATA TYPE=NMR FID
##DATA CLASS=NTUPLES
##ORIGIN=SPA1903 at Magritek
##OWNER=Copyright (C) 2025 by Magritek
##LONGDATE=2025/03/17 11:59:22.624
##.OBSERVE FREQUENCY=15.4860999900848
##.OBSERVE NUCLEUS=^13C
##.DELAY=( 20,  2000)
##.ACQUISITION MODE=SIMULTANEOUS
##.FIELD= 1.5
##.AVERAGES= 1
##.DIGITISER RES=16
##.SHIFT REFERENCE=(INTERNAL, Water, 4096, 0)
##$REFERENCE_POINT= 796.529    $$ Referencing label
$$      Distance of the zero axis position (in Hz) from the last data
$$      point (right edge); positive values -> right edge is below 0 Hz
##SPECTROMETER/DATA SYSTEM=Magritek
##SAMPLE DESCRIPTION=solvent=Water
$$ Bruker specific parameters
$$ --------------------------
##$AUNMP=   <proc_1d_nosref>
##$INSTRUM= <Magritek>
##$SI=      8192
##$TD=      8192
##$TDeff=   8192
##$SW=      322.870200
##$BF1=     15.4860999900848
##$SF=      15.4843965190859
##$LB=      0
##$PHC0=    217.2
##$PHC1=    0.0
##$REVERSE= yes
$$ End of Bruker specific parameters
$$ ---------------------------------
##NTUPLES=NMR FID
##VAR_NAME=        TIME,            FID/REAL,            FID/IMAG, PAGE NUMBER
##SYMBOL=             X,                   R,                   I,           N
##VAR_TYPE= INDEPENDENT,           DEPENDENT,           DEPENDENT,        PAGE
##VAR_FORM=        AFFN,                AFFN,                AFFN,        AFFN
##VAR_DIM=         8192,                8192,                8192,           2
##UNITS=        SECONDS,     ARBITRARY UNITS,     ARBITRARY UNITS,            
##FIRST=              0,                   0,                   0,           1
##LAST=    1.638199e+00,   -0.31078944006669,    0.60119949982248,           2
##MIN=                0,   -3653.84852647345,   -3559.47683181424,           1
##MAX=     1.638199e+00,    3539.74032666834,    3804.71889236662,           2
##FACTOR=             1,                   1,                   1,           1
##PAGE=N=1
##DATA TABLE=(X++(R..R)), XYDATA
0.000000     0.000000  1516.812497 -2781.618730 -3542.857951   167.955589  3539.049618
0.001200  2522.991526 -1570.872495 -3653.848526 -1226.782992  2624.668570  3191.788125
0.002400  -106.659222 -3177.955767 -2367.927528  1259.872818  3318.146240  1373.433193
0.003600 -2194.293786 -3105.479979  -278.042359  2896.248261  2587.296102  -857.627538
0.004800 -3297.719878 -1756.952832  1979.654154  3356.383021   607.346572 -2957.407849
0.006000 -2906.895657   765.658903  3539.740327  1948.077455 -2089.266791 -3559.158940
0.007200  -596.457231  3135.036388  2969.447462  -894.833074 -3630.270671 -1834.129760
0.008400  2211.880538  3469.182165   428.198343 -3084.472276 -2756.521157   943.558087
0.009600  3407.537806  1669.061812 -2058.490860 -3197.222163  -442.799101  2777.120037
0.010800  2588.885413  -697.553983 -3092.917905 -1744.887845  1678.249094  3067.031986
0.012000   752.810941 -2472.930321 -2724.067731   326.892133  3014.780810  2067.106820
0.013200 -1433.465577 -3250.124020 -1089.605283  2475.538954  3032.982513  -180.534367
0.014400 -3221.956123 -2289.113629  1516.842514  3478.468540  1106.209327 -2670.081540
0.015600 -3118.171516   338.919832  3353.610694  2163.418671 -1688.206843 -3387.152091
0.016800  -889.018106  2656.711378  2870.964711  -433.216034 -3119.025682 -1945.239082
0.018000  1536.077101  3068.782569   882.496536 -2297.456766 -2673.852150   152.164653
0.019200  2768.450582  2042.854947 -1132.533894 -2948.662034 -1221.667889  2005.902677
0.020400  2845.156736   218.766412 -2732.384351 -2389.226301   920.909261  3167.511997
0.021600  1517.968209 -2057.680763 -3133.161622  -308.451194  2942.077302  2551.029927
0.022800 -1036.027036 -3350.702135 -1483.590003  2233.417225  3149.700453   149.368105
0.024000 -3008.811943 -2399.044587  1153.646086  3221.948535  1299.934138 -2168.374924
0.025200 -2919.795609  -101.702301  2767.635358  2224.502296  -990.481152 -2944.227713
0.026400 -1312.611309  1858.015516  2760.425555   342.248686 -2472.122782 -2303.497889
0.027600   648.943656  2827.744296  1584.086147 -1592.873777 -2868.559779  -665.767207
0.028800  2394.715682  2571.401278  -429.874173 -2971.366125 -1864.321376  1585.263926
0.030000  3111.154941   783.400175 -2559.211906 -2742.937065   504.704616  3143.930022
0.031200  1859.184357 -1759.133999 -3159.990297  -618.802596  2654.440790  2597.902295
0.032400  -655.467421 -3042.588467 -1649.684041  1739.429233  2912.340189   516.002943
0.033600 -2430.867887 -2361.473200   532.609291  2702.693806  1598.155691 -1396.300598
0.034800 -2688.929302  -746.021887  2076.981151  2398.818727  -161.817904 -2550.651362
0.036000 -1881.721295  1091.892858  2793.744272  1098.845261 -2002.980853 -2697.925533
0.037200   -43.433144  2723.496908  2143.684031 -1136.137584 -3045.734795 -1165.418808
0.038400  2196.779818  2820.920746   -92.117965 -2892.412922 -2067.356132  1315.641039
0.039600  3021.412652   960.168551 -2246.549517 -2627.869007   221.043644  2726.242488
0.040800  1849.809493 -1243.480156 -2751.813016  -890.295267  1992.328869  2409.803236
0.042000   -74.348914 -2416.979215 -1834.848958   936.162570  2569.666879  1108.933303
0.043200 -1691.049501 -2456.579569  -246.028505  2291.985289  2064.449092  -686.647349
0.044400 -2654.731007 -1393.969182  1623.480100  2680.413553   416.000956 -2411.585234
0.045600 -2276.564953   699.535749  2839.289774  1453.248477 -1761.498858 -2801.285447
0.046800  -339.079800  2552.447360  2246.897012  -845.465935 -2850.514099 -1296.984453
0.048000  1822.680258  2641.410476   206.991101 -2436.526989 -2038.647023   830.192955
0.049200  2605.353566  1189.015956 -1613.043533 -2406.572654  -310.550987  2121.659502
0.050400  1977.156155  -530.136194 -2389.169540 -1372.240104  1290.221935  2416.497699
0.051600   638.381356 -1948.540675 -2215.878884   236.342885  2464.868860  1690.988519
0.052800 -1211.641496 -2670.705091  -825.140337  2097.720453  2450.843226  -267.470975
0.054000 -2686.086659 -1750.136688  1385.566587  2798.671931   706.967634 -2253.080968
0.055200 -2372.147667   442.871681  2660.481761  1560.468450 -1432.045386 -2595.342653
0.056400  -563.859320  2090.763028  2141.006884  -382.200245 -2381.198990 -1473.530203
0.057600  1178.154895  2361.209806   706.104064 -1774.717894 -2126.766274    75.152841
0.058800  2199.598354  1679.542651  -882.281546 -2409.381623 -1019.390869  1648.894279
0.060000  2346.748881   150.719879 -2286.693456 -1934.548576   838.844336  2615.861715
0.061200  1155.650271 -1777.019377 -2521.932819  -126.048314  2436.756321  1972.484672
0.062400  -960.300587 -2692.624509 -1060.269415  1875.307338  2446.095037    -9.885343
0.063600 -2409.630177 -1803.304685   999.054047  2521.116097   942.072538 -1751.197997
0.064800 -2242.541553   -14.279176  2161.366403  1699.318996  -787.858465 -2290.775171
0.066000 -1032.022302  1451.477876  2178.568891   279.084237 -1949.788262 -1837.968630
0.067200   492.847738  2268.053718  1307.656334 -1285.922950 -2358.277802  -532.340317
0.068400  1994.618637  2093.865774  -418.468038 -2468.210824 -1464.141960  1393.931647
0.069600  2543.887035   510.379652 -2180.571234 -2137.679776   578.114670  2558.812529
0.070800  1337.891629 -1524.111677 -2444.477195  -329.628627  2141.527097  1929.616252
0.072000  -631.449503 -2343.561137 -1174.198438  1376.778864  2192.816193   360.373835
0.073200 -1851.858745 -1804.766900   394.573789  2097.168277  1282.502169 -1062.919875
0.074400 -2135.324154  -639.819387  1652.747793  1969.988662  -113.494957 -2101.579981
0.075600 -1550.939882   934.833038  2328.008555   848.461898 -1729.319568 -2190.473657
0.076800    82.919517  2285.876239  1653.379750 -1051.807391 -2453.991955  -794.941052
0.078000  1865.222519  2192.453850  -214.323217 -2323.182302 -1524.277021  1136.698330
0.079200  2346.505645   658.786886 -1798.727962 -2010.060802   232.729207  2135.649305
0.080400  1400.118231 -1004.638993 -2141.579282  -684.428634  1553.780636  1898.293275
0.081600   -33.931664 -1912.814529 -1481.876701   731.812552  2063.222243   916.549386
0.082800 -1354.320253 -2008.470871  -223.005068  1877.503579  1719.688220  -575.021620
0.084000 -2210.673146 -1128.785570  1381.688329  2218.697603   294.108368 -2034.413407
0.085200 -1848.844251   662.784146  2362.973245  1106.590485 -1531.941033 -2246.405765
0.086400  -159.806322  2101.656826  1728.299074  -769.212611 -2267.762672  -946.703099
0.087600  1493.730105  2042.300414   102.070928 -1899.181057 -1556.546436   635.753103
0.088800  2008.060531   956.338605 -1212.383557 -1900.168414  -320.625106  1640.803340
0.090000  1640.546900  -334.672075 -1930.592112 -1209.983747   998.042840  2040.894854
0.091200   596.448102 -1629.228701 -1896.255085   201.157628  2098.410984  1409.641739
0.092400 -1058.367249 -2246.014993  -626.058249  1793.501683  1982.337260  -314.021462
0.093600 -2219.734088 -1344.879800  1201.989710  2219.919506   472.571949 -1819.143447
0.094800 -1823.571683   398.753868  2082.152637  1188.759147 -1124.443977 -2007.813709
0.096000  -446.239829  1610.873938  1680.392842  -260.882039 -1844.243378 -1208.973278
0.097200   867.741623  1894.350212   639.084893 -1391.936237 -1749.347208     4.686970
0.098400  1773.812911  1411.842984  -685.606191 -1982.654732  -859.442056  1361.817978
0.099600  1945.525372   112.587529 -1892.317432 -1571.583370   719.489911  2147.257705
0.100800   899.104472 -1486.446362 -2024.316326   -26.728434  2004.538806  1527.236208
0.102000  -850.332434 -2138.328833  -762.235229  1532.276805  1890.211873   -82.005517
0.103200 -1900.313272 -1348.131048   819.870361  1928.731749   682.216991 -1345.683113
0.104400 -1707.094090   -20.437561  1649.421275  1329.014071  -568.802338 -1774.393556
0.105600  -851.185344  1095.452280  1746.789174   291.395595 -1551.381990 -1531.547777
0.106800   365.414211  1865.116680  1095.041260 -1071.771081 -1964.263836  -408.440826
0.108000  1690.226181  1696.398140  -430.350207 -2042.944785 -1109.316716  1219.360232
