##TITLE=1D-13C-1-2-5-328-110-"no"-"yes"
##JCAMP-DX=5.01 $$ Magritek Spinsolve SPA1903 2.0.4.4423
##DATA TYPE=NMR FID
##DATA CLASS=NTUPLES
##ORIGIN=SPA1903 at Magritek
##OWNER=Copyright (C) 2025 by Magritek
##LONGDATE=2025/03/17 11:57:19.887
##.OBSERVE FREQUENCY=15.4860999900848
##.OBSERVE NUCLEUS=^13C
##.DELAY=( 20,  2000)
##.ACQUISITION MODE=SIMULTANEOUS
##.FIELD= 1.5
##.AVERAGES= 1
##.DIGITISER RES=16
##.SHIFT REFERENCE=(INTERNAL, Water, 4096, 0)
##$REFERENCE_POINT= 796.529    $$ Referencing label
$$      Distance of the zero axis position (in Hz) from the last data
$$      point (right edge); positive values -> right edge is below 0 Hz
##SPECTROMETER/DATA SYSTEM=Magritek
##SAMPLE DESCRIPTION=solvent=Water
$$ Bruker specific parameters
$$ --------------------------
##$AUNMP=   <proc_1d_nosref>
##$INSTRUM= <Magritek>
##$SI=      8192
##$TD=      8192
##$TDeff=   8192
##$SW=      322.870200
##$BF1=     15.4860999900848
##$SF=      15.4843965190859
##$LB=      0
##$PHC0=    217.4
##$PHC1=    0.0
##$REVERSE= yes
$$ End of Bruker specific parameters
$$ ---------------------------------
##NTUPLES=NMR FID
##VAR_NAME=        TIME,            FID/REAL,            FID/IMAG, PAGE NUMBER
##SYMBOL=             X,                   R,                   I,           N
##VAR_TYPE= INDEPENDENT,           DEPENDENT,           DEPENDENT,        PAGE
##VAR_FORM=        AFFN,                AFFN,                AFFN,        AFFN
##VAR_DIM=         8192,                8192,                8192,           2
##UNITS=        SECONDS,     ARBITRARY UNITS,     ARBITRARY UNITS,            
##FIRST=              0,                   0,                   0,           1
##LAST=    1.638199e+00,   0.394864601389721,  -0.345849202540274,           2
##MIN=                0,   -10450.5203245969,   -9874.87110725272,           1
##MAX=     1.638199e+00,    10083.0895467295,    10854.5443221532,           2
##FACTOR=             1,                   1,                   1,           1
##PAGE=N=1
##DATA TABLE=(X++(R..R)), XYDATA
0.000000     0.000000  4348.234549 -7976.876231 -10116.510612   475.102687 10083.089547
0.001200  7226.395883 -4447.105654 -10450.520325 -3535.847599  7520.128328  9111.014130
0.002400  -343.604305 -9076.232491 -6716.845868  3599.969054  9445.993652  3896.873821
0.003600 -6303.813802 -8837.177519  -694.406150  8257.030684  7250.300257 -2526.140510
0.004800 -9346.706556 -4868.344344  5671.028914  9433.671319  1577.752279 -8375.586874
0.006000 -8067.705155  2268.008013  9908.171405  5319.140788 -5933.036558 -9892.538468
0.007200 -1540.330660  8783.269613  8164.575453 -2621.248069 -10092.739384 -4972.360908
0.008400  6247.098635  9586.551250  1064.833646 -8610.547317 -7553.148625  2720.626657
0.009600  9466.721557  4515.078256 -5832.610977 -8831.291306 -1059.058998  7775.238116
0.010800  7039.272910 -2111.295738 -8563.048163 -4657.128001  4826.048427  8427.705718
0.012000  1821.317813 -6949.182802 -7308.373809  1149.262237  8257.720442  5435.056173
0.013200 -4088.296325 -8800.404025 -2709.131031  6886.381018  8084.069801  -752.099766
0.014400 -8764.651631 -5973.462736  4280.146068  9348.967773  2787.147094 -7373.567009
0.015600 -8323.837158  1176.974699  9128.310005  5613.202255 -4776.453486 -9090.495166
0.016800 -2157.622867  7311.629404  7621.087252 -1435.740201 -8502.059521 -4981.393332
0.018000  4441.527554  8187.853053  2039.417316 -6357.981773 -6999.437258   740.284012
0.019200  7511.890878  5195.792457 -3363.511101 -7826.655309 -2878.725154  5540.315045
0.020400  7360.269859   266.560902 -7327.282218 -6074.105801  2750.417505  8363.905786
0.021600  3670.401660 -5678.094157 -8100.691964  -459.564324  7869.923723  6469.272084
0.022800 -3043.670615 -8822.234658 -3575.195925  6139.692129  8154.662186    10.488009
0.024000 -8053.324738 -6039.659193  3380.387726  8474.326666  3073.046350 -5979.021582
0.025200 -7532.572258   132.380645  7455.138977  5548.839917 -3018.398043 -7719.679155
0.026400 -3036.276920  5176.011859  7041.103312   445.203910 -6637.459682 -5678.068357
0.027600  2152.478072  7364.338546  3666.995345 -4455.337502 -7228.051392 -1265.681042
0.028800  6367.376285  6346.203869 -1540.364325 -7690.210764 -4384.409602  4426.676937
0.030000  7837.778905  1558.270525 -6740.074117 -6773.231550  1672.275668  8144.533314
0.031200  4425.468425 -4871.662281 -8013.885033 -1129.626730  7046.744979  6390.603491
0.032400 -2117.324166 -7891.545941 -3844.546428  4865.827473  7374.738069   780.598853
0.033600 -6517.716807 -5689.535001  1904.418285  6965.640290  3593.130590 -3996.987219
0.034800 -6695.931957 -1323.737773  5571.621632  5707.827822  -970.449195 -6469.522522
0.036000 -4243.233694  3147.789430  6879.955720  2255.799327 -5289.979494 -6457.407250
0.037200   386.369084  6894.121868  4930.248182 -3234.100773 -7502.443586 -2440.319866
0.038400  5766.598167  6812.484545  -706.207116 -7352.002844 -4765.815695  3750.490162
0.039600  7488.355556  1879.216522 -5945.263610 -6279.628031  1110.371106  6954.753894
0.040800  4143.236684 -3642.151278 -6775.109853 -1602.927066  5331.375086  5640.620674
0.042000  -801.835182 -6118.353989 -4020.505033  2849.402114  6238.155732  2102.946111
0.043200 -4555.300965 -5695.357140    45.379109  5738.724827  4526.720204 -2195.158183
0.044400 -6369.832020 -2808.855603  4321.480870  6252.633105   423.629802 -6024.021307
0.045600 -5047.865594  2205.994130  6818.507970  3007.226950 -4627.015349 -6569.680705
0.046800  -264.949752  6403.441427  5015.706354 -2624.081043 -6899.035134 -2582.571481
0.048000  4843.482183  6197.249125  -116.810658 -6195.050244 -4504.075674  2676.711900
0.049200  6336.362095  2202.686496 -4405.043605 -5524.077849   -20.361753  5384.840266
0.050400  4252.005583 -1962.164565 -5723.675162 -2576.013680  3596.286721  5433.523790
0.051600   796.799450 -4859.504656 -4761.084925  1158.668756  5832.944862  3415.174283
0.052800 -3318.861516 -6087.660642 -1341.284109  5193.478824  5391.582945 -1176.751345
0.054000 -6412.772850 -3657.032253  3759.541233  6487.039783  1059.836440 -5682.406709
0.055200 -5266.616904  1702.745609  6448.590466  3116.975212 -3983.119334 -6012.538355
0.056400  -618.198482  5372.413564  4639.413487 -1678.758783 -5752.451292 -2786.733808
0.057600  3402.172305  5354.500599   903.327338 -4534.436483 -4512.772366   914.582144
0.058800  5230.169734  3254.938369 -2641.779100 -5384.111273 -1645.807750  4159.175139
0.060000  5026.703254  -268.031368 -5398.526181 -3941.661724  2488.576947  5933.599253
0.061200  2027.608598 -4456.803667 -5477.982232   312.475358  5802.863188  4091.692886
0.062400 -2800.554031 -6199.205243 -1802.348005  4797.096728  5336.841742  -713.169406
0.063600 -5777.058427 -3657.042922  2947.476894  5816.014021  1454.656474 -4580.417320
0.064800 -4821.450610   778.902079  5217.079644  3266.926933 -2509.000768 -5174.900519
0.066000 -1594.496715  3845.837601  4573.772926  -197.509897 -4643.152696 -3513.104439
0.067200  1790.888694  4994.584942  2234.581649 -3321.314885 -4949.644733  -503.007386
0.068400  4683.956085  4181.675967 -1529.108956 -5467.377893 -2684.765255  3539.145979
0.069600  5467.842842   530.218651 -5168.879921 -4397.207815  1927.505404  5818.209931
0.070800  2387.825056 -3992.620431 -5309.447792    -2.359636  5196.970150  3851.049527
0.072000 -2196.983862 -5360.393049 -1873.749177  3756.614227  4629.485044   -86.951704
0.073200 -4503.869027 -3401.239090  1690.326216  4644.362325  2035.010752 -2956.701432
0.074400 -4379.320704  -562.320972  3924.533903  3723.621834  -958.033361 -4567.211889
0.075600 -2702.504090  2544.364119  4829.413935  1157.708188 -4081.593818 -4334.152759
0.076800   839.118556  5039.819921  3008.406057 -2818.103215 -5212.882358 -1076.264966
0.078000  4484.994536  4414.430614 -1209.686863 -5252.982591 -2692.535557  3143.411938
0.079200  4992.440020   669.057927 -4407.527170 -3969.879204  1352.046334  4865.758001
0.080400  2314.803033 -2934.170402 -4446.576366  -605.403031  3831.206624  3597.792432
0.081600  -931.743188 -4283.150561 -2439.149160  2301.127816  4205.897641  1087.561756
0.082800 -3299.192365 -3774.215084   284.086335  4099.164111  2998.886060 -1839.000993
0.084000 -4531.803897 -1678.440239  3317.793156  4313.195872   -26.941957 -4466.285349
0.085200 -3418.391646  1978.700023  4990.976982  1737.873429 -3743.306645 -4524.276628
0.086400   379.090064  4777.034620  3172.221539 -2367.761417 -4877.806662 -1284.710691
0.087600  3809.886016  4063.180776  -668.053361 -4407.825982 -2659.578021  2207.054195
0.088800  4222.744657  1138.162637 -3172.015208 -3589.660117   233.950477  3704.212069
0.090000  2739.891186 -1467.041627 -3913.183708 -1703.884525  2553.305397  3826.236498
0.091200   504.353870 -3554.887359 -3391.154781  1013.301508  4315.868908  2307.939237
0.092400 -2657.262024 -4404.634862  -665.395122  3997.390104  3727.068407 -1266.241788
0.093600 -4737.362592 -2229.871037  3094.775436  4477.061606   236.324875 -4205.173865
0.094800 -3352.888602  1602.458567  4485.836162  1784.048967 -3048.330515 -3986.992984
0.096000   -25.830666  3789.438691  2892.840649 -1392.223852 -3866.724701 -1695.219981
0.097200  2448.875733  3611.195809   429.507521 -3220.418722 -2963.937659   809.105347
0.098400  3598.397609  2115.730902 -1940.815969 -3751.484575 -1002.001402  3073.188447
0.099600  3447.457014  -445.879079 -3868.266312 -2559.013293  1963.834179  4151.771411
0.100800  1183.402109 -3364.705596 -3757.657563   606.067001  4241.437287  2536.411866
0.102000 -2349.167385 -4260.771891  -832.862257  3602.259676  3488.296998  -966.866229
0.103200 -4124.047590 -2092.795860  2450.714499  3823.910445   493.741567 -3288.173678
0.104400 -2949.447931   892.034234  3509.099348  1865.948516 -1928.164271 -3329.354261
0.105600  -763.545869  2654.395591  2890.994189  -290.992288 -3132.068329 -2271.535582
0.106800  1338.439561  3435.432930  1399.743618 -2467.134788 -3412.823935  -110.380828
0.108000  3439.725071  2772.092775 -1401.783740 -3925.435279 -1558.530669  2855.232159
