##TITLE=1D-13C-1-2-5-328-110-"no"-"yes"
##JCAMP-DX=5.01 $$ Magritek Spinsolve SPA1903 2.0.4.4423
##DATA TYPE=NMR FID
##DATA CLASS=NTUPLES
##ORIGIN=SPA1903 at Magritek
##OWNER=Copyright (C) 2025 by Magritek
##LONGDATE=2025/03/17 11:57:50.561
##.OBSERVE FREQUENCY=15.4860999900848
##.OBSERVE NUCLEUS=^13C
##.DELAY=( 20,  2000)
##.ACQUISITION MODE=SIMULTANEOUS
##.FIELD= 1.5
##.AVERAGES= 1
##.DIGITISER RES=16
##.SHIFT REFERENCE=(INTERNAL, Water, 4096, 0)
##$REFERENCE_POINT= 796.529    $$ Referencing label
$$      Distance of the zero axis position (in Hz) from the last data
$$      point (right edge); positive values -> right edge is below 0 Hz
##SPECTROMETER/DATA SYSTEM=Magritek
##SAMPLE DESCRIPTION=solvent=Water
$$ Bruker specific parameters
$$ --------------------------
##$AUNMP=   <proc_1d_nosref>
##$INSTRUM= <Magritek>
##$SI=      8192
##$TD=      8192
##$TDeff=   8192
##$SW=      322.870200
##$BF1=     15.4860999900848
##$SF=      15.4843965190859
##$LB=      0
##$PHC0=    217.2
##$PHC1=    0.0
##$REVERSE= yes
$$ End of Bruker specific parameters
$$ ---------------------------------
##NTUPLES=NMR FID
##VAR_NAME=        TIME,            FID/REAL,            FID/IMAG, PAGE NUMBER
##SYMBOL=             X,                   R,                   I,           N
##VAR_TYPE= INDEPENDENT,           DEPENDENT,           DEPENDENT,        PAGE
##VAR_FORM=        AFFN,                AFFN,                AFFN,        AFFN
##VAR_DIM=         8192,                8192,                8192,           2
##UNITS=        SECONDS,     ARBITRARY UNITS,     ARBITRARY UNITS,            
##FIRST=              0,                   0,                   0,           1
##LAST=    1.638199e+00,   0.695410905769518,  -0.710494344601815,           2
##MIN=                0,   -8009.09326142771,   -7638.82121710763,           1
##MAX=     1.638199e+00,    7733.51249487464,    8324.67968380895,           2
##FACTOR=             1,                   1,                   1,           1
##PAGE=N=1
##DATA TABLE=(X++(R..R)), XYDATA
0.000000     0.000000  3331.137179 -6105.762946 -7755.648971   365.368663  7733.512495
0.001200  5529.999295 -3418.908529 -8009.093261 -2703.371456  5760.131694  6983.530997
0.002400  -255.429235 -6960.102340 -5153.985316  2766.542674  7251.087690  2993.615546
0.003600 -4827.856143 -6783.516772  -550.927233  6337.428789  5591.364340 -1922.656693
0.004800 -7192.575794 -3770.574973  4354.936622  7272.847047  1237.859292 -6441.156006
0.006000 -6245.246525  1712.700956  7650.136461  4135.068778 -4568.138780 -7656.345174
0.007200 -1211.348491  6777.318722  6331.736221 -2000.508771 -7808.673558 -3878.590828
0.008400  4808.599373  7438.478587   860.745105 -6659.429332 -5866.340828  2086.726767
0.009600  7328.734653  3528.016457 -4481.587974 -6855.785347  -869.035584  6006.249552
0.010800  5498.416081 -1592.030250 -6646.471600 -3659.855659  3701.704123  6550.950931
0.012000  1478.967309 -5373.049663 -5728.498970   839.701471  6430.935764  4279.137822
0.013200 -3145.773437 -6868.882689 -2175.595379  5333.880478  6349.579047  -527.321347
0.014400 -6841.650485 -4720.958188  3310.552081  7317.671980  2219.334232 -5727.538212
0.015600 -6531.748305   860.436096  7117.457882  4446.415903 -3683.511886 -7123.574618
0.016800 -1748.093857  5683.298469  5999.594755 -1045.505134 -6623.792861 -3970.517022
0.018000  3395.642207  6438.579676  1687.348890 -4938.946505 -5537.577806   491.960888
0.019200  5873.970405  4153.212166 -2558.897179 -6166.862569 -2360.772710  4315.672885
0.020400  5844.689135   287.237396 -5753.032842 -4850.207444  2095.262170  6590.039052
0.021600  2974.967765 -4411.315897 -6428.182234  -449.245181  6179.676511  5162.933637
0.022800 -2323.637347 -6957.158366 -2906.436701  4767.787273  6470.749390   107.599002
0.024000 -6319.558137 -4845.512007  2575.906776  6698.439831  2523.423532 -4652.012229
0.025200 -5987.870450    -5.135909  5845.847871  4469.313412 -2272.957974 -6105.811010
0.026400 -2509.792740  4016.003599  5625.300914   465.429009 -5213.158822 -4590.053523
0.027600  1581.810243  5837.844004  3029.073332 -3460.123870 -5796.446589 -1121.134921
0.028800  5007.929604  5114.372015 -1112.014593 -6114.635820 -3602.265138  3438.197582
0.030000  6289.121177  1360.606673 -5324.993037 -5464.926031  1233.578655  6469.671327
0.031200  3623.355734 -3777.161284 -6419.565096 -1029.700979  5560.274379  5174.406312
0.032400 -1569.510424 -6268.155591 -3167.484666  3767.210371  5911.652048   772.011690
0.033600 -5124.881467 -4633.901362  1372.287093  5555.799159  3010.176793 -3085.455472
0.034800 -5396.078585 -1217.860645  4375.689198  4678.195530  -631.481439 -5184.470954
0.036000 -3531.249263  2429.870416  5561.859730  1935.130434 -4188.892873 -5273.718869
0.037200   186.025566  5523.379613  4074.920537 -2499.953816 -6072.382476 -2082.557003
0.038400  4571.116363  5543.953940  -438.301378 -5875.584534 -3940.613346  2893.042905
0.039600  6042.722652  1653.729821 -4697.720393 -5131.621701   752.442902  5561.009850
0.040800  3464.417046 -2786.792286 -5482.562673 -1461.045830  4204.219275  4651.895876
0.042000  -487.102150 -4912.957870 -3385.922474  2162.880186  5072.813237  1868.852685
0.043200 -3589.541386 -4712.326229  -132.554252  4624.647367  3810.214313 -1656.312162
0.044400 -5198.833975 -2429.604581  3415.796696  5150.895016   494.709647 -4857.377481
0.045600 -4227.569996  1668.295280  5564.561118  2576.860978 -3669.669514 -5395.523501
0.046800  -360.693422  5156.333627  4199.918309 -1985.415505 -5614.876789 -2247.560599
0.048000  3828.602449  5096.541389    70.188434 -4958.850581 -3777.432817  2000.150269
0.049200  5159.192566  1975.601515 -3461.969082 -4582.464621  -210.063636  4321.062341
0.050400  3605.511601 -1423.792408 -4681.685440 -2299.671835  2811.131133  4538.275965
0.051600   840.928794 -3927.336791 -4039.455202   798.763753  4790.580684  2954.196640
0.052800 -2611.692521 -5058.552088 -1253.292531  4206.897357  4531.762574  -830.671154
0.054000 -5248.195770 -3120.491671  2964.446651  5353.599999  1027.897032 -4563.977986
0.055200 -4412.729512  1225.082579  5254.598657  2710.562755 -3114.722854 -4965.304171
0.056400  -697.539272  4291.888000  3924.195508 -1174.408860 -4699.589061 -2478.291636
0.057600  2632.953116  4471.853808   948.865788 -3642.434592 -3844.323398   559.774915
0.058800  4294.809588  2862.568562 -2036.137980 -4516.913393 -1550.386865  3361.610429
0.060000  4265.460831   -61.312333 -4439.056822 -3405.096818  1917.220051  4947.946452
0.061200  1846.796867 -3598.129566 -4627.077256   104.157970  4759.080617  3502.050060
0.062400 -2168.855272 -5138.307293 -1663.926247  3849.260629  4507.777492  -407.675337
0.063600 -4732.773855 -3161.449802  2269.676469  4820.005284  1394.444479 -3645.530415
0.064800 -4096.036934   423.414330  4273.977798  2893.085787 -1902.003402 -4329.523560
0.066000 -1527.903226  3070.993711  3917.787696    63.145728 -3823.072955 -3116.075362
0.067200  1320.757952  4213.226597  2057.173332 -2667.029616 -4242.537819  -600.312060
0.068400  3878.777948  3648.207193 -1129.241855 -4601.630691 -2403.760227  2854.280069
0.069600  4638.574925   599.397106 -4255.858505 -3789.351057  1448.869783  4849.635821
0.070800  2159.505540 -3189.115089 -4492.275055  -199.709750  4250.029815  3354.767261
0.072000 -1626.425740 -4465.828714 -1778.383458  2967.342913  3966.701132   170.677516
0.073200 -3695.236215 -3030.341791  1206.773086  3912.694574  1930.139640 -2332.312141
0.074400 -3793.379464  -706.780490  3253.697055  3312.797509  -629.450189 -3882.522151
0.075600 -2472.317476  2028.309653  4151.860029  1158.383907 -3376.315807 -3791.019611
0.076800   539.478616  4262.607989  2703.049191 -2256.150188 -4449.560154 -1079.318074
0.078000  3681.005012  3830.635579  -824.155557 -4402.209409 -2448.177709  2487.695804
0.079200  4259.581373   770.062526 -3600.420933 -3467.373630   917.816290  4065.507609
0.080400  2163.352886 -2286.796074 -3836.326009  -751.686218  3136.061226  3199.116437
0.081600  -565.097259 -3603.435525 -2278.253214  1766.644653  3658.954023  1165.244450
0.082800 -2720.143149 -3370.635131    41.695835  3490.313289  2738.671299 -1415.138023
0.084000 -3926.141590 -1624.195099  2745.912708  3798.824366   145.768838 -3788.413525
0.085200 -3055.195532  1552.333362  4279.575097  1643.461811 -3072.208191 -3931.931513
0.086400   131.085539  3997.810032  2842.576960 -1829.133558 -4154.066833 -1294.725946
0.087600  3084.497339  3552.010005  -327.886499 -3672.042999 -2462.959293  1655.878787
0.088800  3639.980045  1222.736335 -2561.918087 -3207.317831   -46.534998  3117.053931
0.090000  2557.424977 -1051.333839 -3417.230677 -1700.102744  2084.619220  3425.760636
0.091200   624.755456 -3034.021369 -3070.757134   716.032390  3743.565153  2156.271436
0.092400 -2189.626566 -3873.928202  -733.636366  3378.310137  3306.333455  -935.449782
0.093600 -4047.966131 -2075.128709  2501.899190  3889.174623   401.283901 -3508.030041
0.094800 -3007.849080  1171.381092  3822.258284  1731.058358 -2429.910089 -3495.636979
0.096000  -278.043863  3155.015249  2672.931015  -967.515287 -3343.269086 -1698.626809
0.097200  1942.667013  3218.851701   612.885179 -2704.670838 -2757.203082   487.769764
0.098400  3156.072063  2052.177798 -1554.961586 -3356.452039 -1078.571920  2601.768022
0.099600  3141.591783  -211.845762 -3376.307978 -2399.316268  1587.483328  3679.650689
0.100800  1199.940366 -2843.048334 -3363.929186   355.572474  3646.394950  2357.558338
0.102000 -1876.216746 -3735.553108  -917.569427  2999.211931  3129.426042  -629.067271
0.103200 -3515.373788 -2002.099922  1907.505298  3359.493712   686.925899 -2708.000686
0.104400 -2725.900941   510.311353  3026.281132  1863.338700 -1468.241311 -2990.145511
0.105600  -943.808060  2204.495655  2718.315772   -11.187400 -2753.677171 -2218.927890
0.106800  1019.524052  3112.864641  1439.579047 -2087.745323 -3134.833707  -284.156661
0.108000  3011.214982  2598.453030 -1099.395420 -3492.896308 -1532.412744  2399.530192
