##TITLE=1D-13C-1-5-5-328-110-"no"-"yes"
##JCAMP-DX=5.01 $$ Magritek Spinsolve SPA1903 2.0.4.4423
##DATA TYPE=NMR FID
##DATA CLASS=NTUPLES
##ORIGIN=SPA1903 at Magritek
##OWNER=Copyright (C) 2025 by Magritek
##LONGDATE=2025/02/12 14:29:07.069
##.OBSERVE FREQUENCY=15.4861775226891
##.OBSERVE NUCLEUS=^13C
##.DELAY=( 20,  5000)
##.ACQUISITION MODE=SIMULTANEOUS
##.FIELD= 1.5
##.AVERAGES= 1
##.DIGITISER RES=16
##.SHIFT REFERENCE=(INTERNAL, Water, 4096, 0)
##$REFERENCE_POINT= 796.520    $$ Referencing label
$$      Distance of the zero axis position (in Hz) from the last data
$$      point (right edge); positive values -> right edge is below 0 Hz
##SPECTROMETER/DATA SYSTEM=Magritek
##SAMPLE DESCRIPTION=solvent=Water
$$ Bruker specific parameters
$$ --------------------------
##$AUNMP=   <proc_1d_nosref>
##$INSTRUM= <Magritek>
##$SI=      8192
##$TD=      8192
##$TDeff=   8192
##$SW=      322.868600
##$BF1=     15.4861775226891
##$SF=      15.4844740431616
##$LB=      0
##$PHC0=    217.8
##$PHC1=    0.0
##$REVERSE= yes
$$ End of Bruker specific parameters
$$ ---------------------------------
##NTUPLES=NMR FID
##VAR_NAME=        TIME,            FID/REAL,            FID/IMAG, PAGE NUMBER
##SYMBOL=             X,                   R,                   I,           N
##VAR_TYPE= INDEPENDENT,           DEPENDENT,           DEPENDENT,        PAGE
##VAR_FORM=        AFFN,                AFFN,                AFFN,        AFFN
##VAR_DIM=         8192,                8192,                8192,           2
##UNITS=        SECONDS,     ARBITRARY UNITS,     ARBITRARY UNITS,            
##FIRST=              0,                   0,                   0,           1
##LAST=    1.638199e+00, 0.00816498971181323, 0.00103147807531225,           2
##MIN=                0,   -3575.32847716393,   -3383.60294803521,           1
##MAX=     1.638199e+00,     3413.6783603188,    3691.81096994652,           2
##FACTOR=             1,                   1,                   1,           1
##PAGE=N=1
##DATA TABLE=(X++(R..R)), XYDATA
0.000000     0.000000  1482.196878 -2714.581851 -3449.120618   134.358270  3413.678360
0.001200  2497.332605 -1461.186715 -3575.328477 -1271.513010  2537.205929  3147.864688
0.002400   -63.468557 -3090.509863 -2339.726893  1180.250441  3232.205258  1379.692055
0.003600 -2120.346095 -3028.430785  -275.065447  2779.871434  2469.685401  -805.336417
0.004800 -3125.963983 -1682.479860  1837.452670  3162.434646   605.602002 -2730.463381
0.006000 -2729.282405   636.139523  3239.557800  1869.213132 -1814.430932 -3286.013910
0.007200  -696.426295  2774.829653  2815.757076  -638.670347 -3289.192277 -1852.292229
0.008400  1858.937599  3231.954176   620.088964 -2709.281796 -2674.533620   629.002863
0.009600  3114.357860  1754.712116 -1718.811219 -3029.976661  -639.790821  2470.039566
0.010800  2536.980380  -443.535462 -2849.474432 -1799.937183  1423.637860  2899.227176
0.012000   846.898345 -2214.526714 -2573.845545   165.514091  2703.692046  1991.217634
0.013200 -1156.493906 -2949.845500 -1123.655630  2129.539696  2767.246882   -13.519593
0.014400 -2779.352816 -2136.580185  1141.550782  3045.922808  1190.044171 -2173.648811
0.015600 -2836.778792    48.725948  2839.793635  2079.878809 -1215.377524 -2966.593957
0.016800 -1068.677587  2119.194940  2672.705300   -67.382467 -2667.796102 -1937.233640
0.018000  1110.386045  2724.619241  1047.515485 -1842.310982 -2488.930044  -132.518018
0.019200  2371.772806  1987.108703  -796.351427 -2595.132306 -1253.599942  1584.794146
0.020400  2521.813044   415.182359 -2237.196611 -2191.773621   560.595687  2660.765266
0.021600  1495.406736 -1530.788632 -2690.018748  -533.908460  2304.365336  2316.667792
0.022800  -544.330776 -2745.277025 -1539.943229  1576.657078  2722.273797   496.044208
0.024000 -2314.911249 -2248.432625   570.691436  2653.719976  1466.232986 -1499.877935
0.025200 -2592.846454  -506.005194  2160.832971  2151.900855  -463.009045 -2460.926436
0.026400 -1462.732451  1272.348294  2455.265225   668.337374 -1932.848990 -2181.280023
0.027600   226.538990  2352.358458  1611.094431 -1075.371930 -2461.769114  -866.060980
0.028800  1812.835430  2310.901622   -45.159587 -2381.343433 -1777.797434  1024.661109
0.030000  2561.957516   947.001106 -1838.156934 -2377.788397    27.181524  2419.574084
0.031200  1793.823351 -1066.459685 -2559.824797  -872.347792  1840.321515  2256.912445
0.032400   -78.611678 -2285.867993 -1669.097443   985.320880  2376.981890   838.749223
0.033600 -1654.523703 -2076.385023   -20.171335  2008.120677  1616.508810  -710.145179
0.034800 -2177.555364 -1006.381393  1371.817713  2078.081582   286.467384 -1847.894930
0.036000 -1780.131394   448.767043  2187.005886  1273.565321 -1246.171223 -2268.034639
0.037200  -479.519844  1930.536855  1970.061959  -437.786207 -2333.751304 -1346.062978
0.038400  1335.261103  2363.109142   429.278430 -2036.433164 -1937.856966   561.298188
0.039600  2323.858109  1187.105735 -1381.756027 -2199.862739  -310.137116  1913.633828
0.040800  1745.805174  -540.016636 -2102.585762 -1076.163105  1204.727235  1968.550504
0.042000   365.594670 -1631.588878 -1651.496095   303.133397  1885.710964  1190.663759
0.043200  -940.881519 -1925.751585  -583.880459  1458.168387  1751.706958   -68.281638
0.044400 -1844.747605 -1399.115639   798.019904  2050.648192   765.821393 -1481.121708
0.045600 -1904.414131    20.148263  1938.256653  1478.809881  -827.859488 -2131.514177
0.046800  -767.095448  1565.371866  1916.074672  -110.844897 -1955.246882 -1374.159883
0.048000   873.170652  2025.789504   675.449659 -1495.713923 -1778.748499   125.510626
0.049200  1807.180636  1247.396609  -770.009253 -1811.389545  -684.587546  1249.382673
0.050400  1670.425949    70.411257 -1596.065028 -1320.648740   526.298521  1731.414958
0.051600   874.723691 -1046.755580 -1748.582440  -323.703344  1544.357234  1537.755917
0.052800  -378.822165 -1858.385113 -1058.859116  1065.363208  1910.476162   387.300510
0.054000 -1655.443784 -1651.026793   435.972567  1986.013231  1040.503050 -1192.172737
0.055200 -1911.745585  -259.373869  1683.166940  1521.087047  -507.487833 -1871.072909
0.056400  -911.693015  1138.376487  1745.579961   220.447730 -1509.454403 -1371.694081
0.057600   392.997161  1639.898137   911.771334  -887.943284 -1610.816656  -403.632496
0.058800  1283.568798  1419.532925  -152.562096 -1537.959721 -1083.875957   685.423672
0.060000  1663.975821   625.255468 -1221.209314 -1591.999253    17.064361  1620.124444
0.061200  1229.594755  -674.355523 -1764.065298  -689.844459  1264.933728  1674.304397
0.062400   -23.071965 -1699.966598 -1239.216935   744.209861  1768.462962   614.022546
0.063600 -1266.508042 -1585.243180    45.502858  1614.934488  1169.106415  -699.066095
0.064800 -1653.633185  -579.111399  1148.288316  1465.108301    25.962959 -1435.608492
0.066000 -1154.023495   531.991775  1548.605955   674.940049  -991.217581 -1451.663706
0.067200  -180.793230  1319.656881  1247.209089  -362.897697 -1564.069374  -840.359360
0.068400   937.389516  1567.442211   269.511732 -1366.714043 -1333.562861   352.918187
0.069600  1625.396001   881.805594  -977.246173 -1613.181426  -229.644210  1420.911125
0.070800  1289.685744  -429.733961 -1584.406987  -771.589229   968.573750  1480.802598
0.072000   170.277976 -1303.232187 -1151.067689   377.854636  1398.959963   716.938484
0.073200  -794.447883 -1325.690560  -278.097421  1090.814364  1150.841700  -172.149868
0.074400 -1287.912546  -849.407331   613.739370  1343.936334   468.218872  -994.172414
0.075600 -1287.114390     6.289530  1342.568235  1031.983838  -588.784024 -1494.888132
0.076800  -537.962218  1088.161601  1374.394560   -43.131039 -1426.766754 -1036.815828
0.078000   665.203513  1530.096134   463.705237 -1148.851469 -1300.588454   136.609736
0.079200  1375.313148   918.118993  -659.368357 -1403.678529  -406.316117  1054.095786
0.080400  1174.815510  -112.749508 -1208.393829  -849.938156   502.203085  1251.555329
0.081600   491.756812  -865.758707 -1165.640874   -54.454560  1107.987193   938.389215
0.082800  -344.249798 -1232.077950  -651.955742   751.619720  1268.204224   214.702873
0.084000 -1124.657269 -1084.678754   294.588036  1327.679721   735.587027  -787.829081
0.085200 -1357.416468  -227.355021  1202.950658  1121.195319  -364.729626 -1375.953439
0.086400  -671.752443   848.484011  1299.096501   145.285136 -1167.037360 -1018.124631
0.087600   378.234552  1266.079299   586.626381  -770.592017 -1146.749750  -150.776510
0.088800   982.865099   923.270813  -218.714975 -1081.153139  -659.211009   543.397941
0.090000  1099.014158   339.422273  -830.186645 -1017.624249    10.461302  1056.598587
0.091200   853.624280  -415.789893 -1222.529649  -522.284406   862.885456  1194.763511
0.092400    37.707681 -1183.721510  -951.770413   482.976849  1344.192051   515.961279
0.093600  -980.956298 -1230.138402    78.799401  1255.616279   843.650122  -585.173914
0.094800 -1260.643718  -387.716223   946.690206  1088.533542  -117.289030 -1133.560547
0.096000  -726.876361   521.953120  1082.025159   353.670619  -759.822376  -960.702296
0.097200   -14.934106   946.210790   755.320129  -335.846555  -999.676568  -480.592284
0.098400   601.907022   989.444348   190.891923  -876.282036  -896.792435   202.766016
0.099600  1070.031368   621.491874  -598.326336 -1094.164809  -250.959021   929.012091
0.100800   978.158332  -210.635971 -1155.084330  -647.568327   671.956274  1137.630370
0.102000   184.835771  -982.896551  -922.089038   276.918526  1119.604896   564.730515
0.103200  -676.555093 -1050.904368  -128.199115   913.954598   813.409806  -257.997867
0.104400  -978.994718  -512.466086   550.349375   934.131528   195.130242  -763.084082
0.105600  -797.935231   120.203258   885.739472   592.043370  -408.273391  -935.405136
0.106800  -344.105281   694.467548   911.738651    -7.759432  -943.683002  -714.827362
0.108000   408.812511  1039.188318   387.916047  -761.548878  -983.254446    34.386949
