##TITLE=1D-13C-1-2-5-328-110-"no"-"yes"
##JCAMP-DX=5.01 $$ Magritek Spinsolve SPA1903 2.0.4.4423
##DATA TYPE=NMR FID
##DATA CLASS=NTUPLES
##ORIGIN=SPA1903 at Magritek
##OWNER=Copyright (C) 2025 by Magritek
##LONGDATE=2025/03/17 11:56:40.469
##.OBSERVE FREQUENCY=15.4860999900848
##.OBSERVE NUCLEUS=^13C
##.DELAY=( 20,  2000)
##.ACQUISITION MODE=SIMULTANEOUS
##.FIELD= 1.5
##.AVERAGES= 1
##.DIGITISER RES=16
##.SHIFT REFERENCE=(INTERNAL, Water, 4096, 0)
##$REFERENCE_POINT= 796.529    $$ Referencing label
$$      Distance of the zero axis position (in Hz) from the last data
$$      point (right edge); positive values -> right edge is below 0 Hz
##SPECTROMETER/DATA SYSTEM=Magritek
##SAMPLE DESCRIPTION=solvent=Water
$$ Bruker specific parameters
$$ --------------------------
##$AUNMP=   <proc_1d_nosref>
##$INSTRUM= <Magritek>
##$SI=      8192
##$TD=      8192
##$TDeff=   8192
##$SW=      322.870200
##$BF1=     15.4860999900848
##$SF=      15.4843965190859
##$LB=      0
##$PHC0=    217.6
##$PHC1=    0.0
##$REVERSE= yes
$$ End of Bruker specific parameters
$$ ---------------------------------
##NTUPLES=NMR FID
##VAR_NAME=        TIME,            FID/REAL,            FID/IMAG, PAGE NUMBER
##SYMBOL=             X,                   R,                   I,           N
##VAR_TYPE= INDEPENDENT,           DEPENDENT,           DEPENDENT,        PAGE
##VAR_FORM=        AFFN,                AFFN,                AFFN,        AFFN
##VAR_DIM=         8192,                8192,                8192,           2
##UNITS=        SECONDS,     ARBITRARY UNITS,     ARBITRARY UNITS,            
##FIRST=              0,                   0,                   0,           1
##LAST=    1.638199e+00,  -0.881586141617313,   0.238209701374697,           2
##MIN=                0,   -14705.9986435998,   -13915.6344171588,           1
##MAX=     1.638199e+00,    14127.5727616239,    15233.5712771194,           2
##FACTOR=             1,                   1,                   1,           1
##PAGE=N=1
##DATA TABLE=(X++(R..R)), XYDATA
0.000000     0.000000  6090.037793 -11259.110302 -14192.495397   683.734967 14127.572762
0.001200 10166.387128 -6185.684950 -14705.998644 -5046.693984 10552.084721 12839.949672
0.002400  -456.427587 -12756.481709 -9469.704811  5034.349362 13298.655462  5516.233871
0.003600 -8879.336129 -12456.890268  -935.437499 11656.010772 10143.294494 -3611.737619
0.004800 -13103.582593 -6760.399029  8014.740216 13197.557243  2091.160742 -11786.144024
0.006000 -11174.345640  3301.692173 13779.387451  7254.481485 -8305.402839 -13666.538132
0.007200 -2062.018844 12184.929728 11268.265075 -3692.714813 -13966.616479 -6802.301566
0.008400  8675.221633 13201.027329  1430.445882 -11877.837235 -10406.600874  3771.491039
0.009600 13075.754407  6210.218491 -8090.020264 -12189.382142 -1404.078249 10762.150777
0.010800  9686.608360 -2964.253185 -11847.288801 -6369.867164  6755.725955 11621.956207
0.012000  2370.621137 -9678.056273 -9955.459390  1744.334528 11355.213661  7323.521562
0.013200 -5728.202520 -12043.654405 -3554.751089  9542.171288 10943.900792 -1234.408804
0.014400 -11954.681625 -7969.695069  5937.856039 12673.371794  3657.995401 -10095.824262
0.015600 -11242.209913  1751.791220 12418.857164  7475.922784 -6588.925439 -12280.057235
0.016800 -2807.397648  9975.480910 10289.519726 -2079.670856 -11582.066704 -6626.124881
0.018000  6164.570613 11064.244899  2607.028246 -8690.945281 -9410.045808  1148.710635
0.019200 10240.830604  6902.815146 -4740.958987 -10576.391825 -3666.244442  7629.375183
0.020400  9824.390479   143.327778 -9943.390352 -8029.826310  3910.000170 11249.243143
0.021600  4707.489695 -7786.015796 -10751.600543  -382.048017 10593.020010  8495.690084
0.022800 -4259.516156 -11803.607556 -4593.874121  8359.996637 10806.745041  -208.335739
0.024000 -10810.314403 -7895.445550  4679.822628 11288.286666  3940.189886 -8107.950656
0.025200 -9993.252915   376.933694 10041.859932  7243.634869 -4233.888178 -10277.133667
0.026400 -3850.513252  7030.523389  9317.882442   378.009933 -8974.842452 -7418.989101
0.027600  3121.735183  9814.475446  4612.465459 -6110.988604 -9487.870483 -1419.016556
0.028800  8538.953741  8237.442706 -2282.057995 -10198.109794 -5534.747142  6045.968309
0.030000 10218.076109  1800.559497 -8953.437236 -8765.928868  2393.977783 10744.087639
0.031200  5637.460777 -6592.853905 -10464.390952 -1247.584713  9343.313364  8247.348982
0.032400 -2961.094268 -10384.191300 -4889.373618  6579.227692  9654.667846   768.781861
0.033600 -8701.194647 -7288.727854  2750.310330  9148.779027  4496.118649 -5438.825064
0.034800 -8707.448429 -1454.531264  7435.376991  7261.373191 -1561.764526 -8437.220127
0.036000 -5251.975653  4296.062657  8854.469226  2665.035781 -7007.115816 -8219.930682
0.037200   786.196132  8976.224170  6130.828426 -4384.427065 -9611.818219 -2913.118758
0.038400  7572.981787  8673.113592 -1154.553860 -9553.430907 -5925.061241  5074.919922
0.039600  9592.450888  2147.747412 -7805.077904 -7936.143104  1690.243211  9019.553226
0.040800  5116.617702 -4943.143171 -8670.042905 -1748.027394  7032.097261  7061.327590
0.042000 -1335.351088 -7897.926696 -4906.961022  3916.343379  7946.872579  2370.405526
0.043200 -6040.968043 -7098.653315   407.905521  7379.874664  5481.328397 -3060.965551
0.044400 -8058.669960 -3278.861159  5703.666035  7779.924849   179.321725 -7724.026727
0.045600 -6109.611188  3074.414513  8564.898548  3520.195591 -6035.798830 -8189.561668
0.046800   -19.771706  8225.796706  6091.238390 -3624.429463 -8678.834831 -2966.126045
0.048000  6305.512414  7708.934009  -459.538701 -7977.517244 -5447.506789  3734.654423
0.049200  8006.017399  2411.436306 -5816.983540 -6793.284563   340.030461  6929.328577
0.050400  5090.977514 -2847.726752 -7200.624641 -2825.429475  4801.575183  6612.438889
0.051600   594.588424 -6182.169157 -5672.006767  1777.356275  7286.204609  3920.162944
0.052800 -4407.299708 -7451.389254 -1310.673712  6593.792097  6479.760135 -1755.764840
0.054000 -8015.117087 -4284.903827  4952.707156  8020.706562   966.092918 -7272.184919
0.055200 -6338.342547  2474.959145  8082.821713  3580.831897 -5265.117629 -7421.383577
0.056400  -393.340001  6920.598638  5545.982539 -2508.283235 -7204.400650 -3079.457501
0.057600  4545.985406  6512.954296   711.535206 -5826.668283 -5343.003794  1527.556447
0.058800  6522.255710  3651.864070 -3584.148100 -6516.041500 -1653.025027  5288.880233
0.060000  5982.150447  -662.391362 -6718.075700 -4555.044570  3371.114784  7219.819629
0.061200  2130.436179 -5649.836781 -6533.254593   687.152481  7211.243691  4783.343348
0.062400 -3752.225470 -7600.703361 -1853.613168  6129.331810  6363.888627 -1230.634537
0.063600 -7182.339341 -4230.448104  3932.166519  7142.916841  1430.673789 -5893.796313
0.064800 -5724.608656  1373.430297  6496.640486  3681.422285 -3420.274099 -6290.228358
0.066000 -1550.746331  4978.389476  5366.448976  -692.058295 -5748.055741 -3895.982975
0.067200  2515.291608  5967.581895  2334.406904 -4237.777726 -5804.469835  -235.338541
0.068400  5754.606301  4741.106893 -2155.764954 -6532.748884 -2916.858878  4450.069778
0.069600  6456.577650   334.308025 -6361.989553 -5083.303364  2648.163704  7038.390545
0.070800  2562.174475 -5075.626804 -6286.458813   355.813258  6448.423728  4406.379965
0.072000 -3047.904066 -6517.741823 -1859.231643  4862.877874  5393.455870  -574.165438
0.073200 -5569.412749 -3740.383734  2440.141043  5547.931754  2012.250020 -3849.975958
0.074400 -5027.781324  -194.764848  4808.797217  4074.389926 -1503.691606 -5370.466597
0.075600 -2854.171985  3255.330497  5583.818597  1006.726260 -4992.521594 -4871.072874
0.076800  1339.535395  5970.898751  3246.522288 -3592.456400 -6088.800159  -937.865043
0.078000  5525.042386  5026.525654 -1829.546579 -6287.743094 -2835.404690  4044.349252
0.079200  5820.144343   403.360210 -5464.281960 -4481.826480  2053.567664  5859.308130
0.080400  2326.754238 -3856.808971 -5118.714357  -254.039558  4741.816146  3981.278411
0.081600 -1535.474777 -5124.164894 -2452.869469  3106.414361  4798.787789   790.471682
0.082800 -4062.132976 -4119.862449   728.196963  4828.812001  3153.282871 -2469.538561
0.084000 -5179.205135 -1555.914509  4054.523287  4791.351121  -367.470388 -5249.514269
0.085200 -3719.363799  2585.062564  5797.607525  1704.557068 -4608.928301 -5131.289209
0.086400   800.293767  5704.441355  3450.090190 -3106.289516 -5726.649269 -1160.799223
0.087600  4768.421247  4619.936309 -1231.709316 -5338.621900 -2761.184523  3011.789380
0.088800  4887.002123   872.043046 -3989.538608 -3954.982360   744.368464  4426.359168
0.090000  2787.274433 -2100.421138 -4421.413391 -1531.062538  3144.910003  4165.547513
0.091200   230.220842 -4150.716076 -3620.966688  1449.582678  4917.795884  2340.219641
0.092400 -3238.452915 -4907.725071  -491.532698  4685.826965  4120.364244 -1723.339797
0.093600 -5523.831428 -2315.515620  3851.253933  5074.498087   -81.623559 -5016.043699
0.094800 -3661.559572  2181.460459  5244.657189  1747.647796 -3851.357829 -4499.152415
0.096000   415.948249  4560.487519  3017.552208 -1992.193410 -4439.438444 -1570.914812
0.097200  3108.815120  3978.109385    47.332340 -3840.642631 -3051.072522  1291.863598
0.098400  4029.680213  2037.879247 -2417.950672 -4092.015206  -796.506674  3599.805184
0.099600  3641.726896  -813.389695 -4329.612331 -2583.225739  2393.141376  4567.812760
0.100800  1088.259309 -3911.896653 -4086.426443   957.410928  4846.469107  2617.455527
0.102000 -2903.595805 -4758.623080  -648.431833  4253.014854  3794.572377 -1422.888207
0.103200 -4776.433172 -2079.913041  3121.069666  4267.346236   137.149183 -3957.145934
0.104400 -3074.673022  1441.065964  4020.414593  1700.072674 -2534.576100 -3599.884618
0.105600  -373.979001  3169.085695  2885.995395  -746.459801 -3446.774453 -2119.141518
0.106800  1733.593760  3645.420956  1194.077922 -2853.566842 -3522.493349   181.688329
0.108000  3781.354115  2774.054150 -1741.274154 -4255.179054 -1487.244969  3308.601315
