##TITLE=1D-13C-1-5-5-328-110-"no"-"yes"
##JCAMP-DX=5.01 $$ Magritek Spinsolve SPA1903 2.0.4.4423
##DATA TYPE=NMR FID
##DATA CLASS=NTUPLES
##ORIGIN=SPA1903 at Magritek
##OWNER=Copyright (C) 2025 by Magritek
##LONGDATE=2025/02/12 14:30:23.056
##.OBSERVE FREQUENCY=15.4861775226891
##.OBSERVE NUCLEUS=^13C
##.DELAY=( 20,  5000)
##.ACQUISITION MODE=SIMULTANEOUS
##.FIELD= 1.5
##.AVERAGES= 1
##.DIGITISER RES=16
##.SHIFT REFERENCE=(INTERNAL, Water, 4096, 0)
##$REFERENCE_POINT= 796.520    $$ Referencing label
$$      Distance of the zero axis position (in Hz) from the last data
$$      point (right edge); positive values -> right edge is below 0 Hz
##SPECTROMETER/DATA SYSTEM=Magritek
##SAMPLE DESCRIPTION=solvent=Water
$$ Bruker specific parameters
$$ --------------------------
##$AUNMP=   <proc_1d_nosref>
##$INSTRUM= <Magritek>
##$SI=      8192
##$TD=      8192
##$TDeff=   8192
##$SW=      322.868600
##$BF1=     15.4861775226891
##$SF=      15.4844740431616
##$LB=      0
##$PHC0=    217.6
##$PHC1=    0.0
##$REVERSE= yes
$$ End of Bruker specific parameters
$$ ---------------------------------
##NTUPLES=NMR FID
##VAR_NAME=        TIME,            FID/REAL,            FID/IMAG, PAGE NUMBER
##SYMBOL=             X,                   R,                   I,           N
##VAR_TYPE= INDEPENDENT,           DEPENDENT,           DEPENDENT,        PAGE
##VAR_FORM=        AFFN,                AFFN,                AFFN,        AFFN
##VAR_DIM=         8192,                8192,                8192,           2
##UNITS=        SECONDS,     ARBITRARY UNITS,     ARBITRARY UNITS,            
##FIRST=              0,                   0,                   0,           1
##LAST=    1.638199e+00, -0.0060937141185626,  -0.112828014716448,           2
##MIN=                0,   -1050.83030079257,   -1011.72273298068,           1
##MAX=     1.638199e+00,    1005.02257354069,    1085.52257750196,           2
##FACTOR=             1,                   1,                   1,           1
##PAGE=N=1
##DATA TABLE=(X++(R..R)), XYDATA
0.000000     0.000000   442.807395  -792.548993 -1015.381817    33.984158  1005.022574
0.001200   737.768932  -430.129425 -1050.830301  -373.658850   749.815941   929.780739
0.002400   -15.132113  -911.201635  -697.491908   347.548303   959.281401   412.680884
0.003600  -627.784648  -904.637125   -88.470893   831.704742   748.530974  -239.026239
0.004800  -943.840893  -511.590895   553.420007   957.636166   188.476805  -829.143565
0.006000  -833.822764   192.243121   989.876089   572.133942  -559.514402 -1008.967924
0.007200  -209.682880   856.456382   860.408060  -203.968622 -1010.116435  -563.727374
0.008400   575.885061   994.105610   182.304270  -840.945790  -822.571605   199.550980
0.009600   962.452626   538.929991  -535.694266  -937.173966  -193.993781   767.547762
0.010800   786.659424  -139.502697  -889.665453  -558.157956   446.411780   907.377015
0.012000   268.028870  -691.025425  -814.894394    49.843544   859.188204   630.481585
0.013200  -371.963421  -936.660757  -354.309879   679.668134   882.653733    -4.957570
0.014400  -891.680129  -685.374045   372.279999   976.409745   376.461474  -700.441882
0.015600  -906.895233    18.875636   914.281436   668.652628  -396.638529  -956.681245
0.016800  -340.460160   687.658243   860.529621   -24.523821  -860.417573  -628.657971
0.018000   355.845501   884.756351   341.038911  -605.295662  -812.691315   -44.042359
0.019200   771.806906   651.715623  -254.363545  -848.802247  -417.058973   519.835303
0.020400   837.947043   138.059401  -745.313116  -727.698955   190.261552   887.229600
0.021600   496.597333  -514.651655  -899.022999  -172.198282   776.265901   772.655563
0.022800  -191.146857  -921.751858  -505.427482   538.707191   909.338783   156.275946
0.024000  -781.976233  -747.639325   203.616717   893.924146   480.628116  -514.513046
0.025200  -868.340179  -160.696788   728.654292   721.653194  -161.724861  -831.058729
0.026400  -487.513352   440.589529   831.178473   216.044110  -660.705506  -735.698105
0.027600    83.314031   801.063186   548.693599  -374.453455  -845.510087  -290.927246
0.028800   626.853424   789.257290   -22.950227  -819.539855  -607.497554   357.449406
0.030000   884.730981   321.778588  -645.454458  -819.356037    20.693822   840.273416
0.031200   617.818938  -373.397325  -891.880859  -302.175344   646.229178   789.066508
0.032400   -34.121043  -801.486221  -580.472421   348.086164   835.833918   297.068428
0.033600  -588.881295  -741.935825    -5.153451   724.592524   578.264338  -262.431778
0.034800  -783.860960  -357.721601   500.138795   753.484964    96.126842  -680.740870
0.036000  -640.956284   182.999532   799.392064   442.396397  -471.443468  -818.449195
0.037200  -151.867031   713.359747   699.550232  -184.062896  -846.688066  -461.299557
0.038400   504.708409   845.547841   130.201895  -745.538277  -687.886730   217.345646
0.039600   840.215605   419.600370  -508.498796  -797.236098  -106.319249   698.681333
0.040800   633.822931  -193.815144  -769.793634  -403.830711   441.781269   737.447953
0.042000   144.565452  -610.281404  -623.542196   110.746058   711.926094   452.182743
0.043200  -358.028586  -737.786416  -222.591424   567.088584   674.980895   -39.204845
0.044400  -715.080986  -525.023371   320.253176   784.717884   277.052607  -582.358762
0.045600  -725.959569    27.525448   751.028372   549.533238  -338.003178  -810.377257
0.046800  -271.646435   606.214253   724.620359   -52.026299  -751.450474  -519.176335
0.048000   342.848354   771.405428   248.256955  -572.906581  -681.300338    42.958984
0.049200   694.602255   490.653573  -293.001777  -713.489835  -271.644726   490.464600
0.050400   660.751752    31.443225  -637.202285  -531.764804   214.089092   702.279309
0.051600   346.877553  -435.603892  -702.683293  -107.551048   633.844608   606.943153
0.052800  -176.277414  -753.035696  -401.863443   452.269587   756.914165   118.517261
0.054000  -673.491376  -630.829507   200.386724   781.042230   386.026103  -483.544651
0.055200  -743.617156   -82.012077   668.248902   587.498103  -210.609565  -731.123330
0.056400  -352.090794   443.682876   687.161338    93.668030  -597.445788  -556.029004
0.057600   146.487247   663.822557   380.198187  -357.264705  -663.362401  -169.399819
0.058800   532.597013   597.554425   -62.942275  -652.090820  -454.148647   302.704556
0.060000   704.255983   245.093848  -529.059808  -658.832464    29.162646   691.481360
0.061200   498.743157  -315.138449  -740.820945  -255.594749   551.657627   679.737877
0.062400   -41.958831  -712.252385  -493.326941   332.214678   733.843709   228.986812
0.063600  -544.931968  -642.799884    45.770616   672.893580   467.562671  -304.002331
0.064800  -687.096219  -232.538167   491.669472   610.960675    -3.241196  -608.893641
0.066000  -478.436745   235.323070   659.338082   282.832971  -432.430166  -625.021679
0.067200   -61.595857   582.488172   526.203117  -176.906849  -676.206633  -344.503496
0.068400   420.851606   672.182149    96.091993  -603.887476  -565.895004   178.099252
0.069600   706.677222   356.130909  -438.373247  -685.334466   -81.280831   617.996154
0.070800   546.843419  -193.636417  -683.962063  -326.874922   423.594406   640.929880
0.072000    73.798626  -571.636264  -511.146083   164.102765   627.187958   328.906432
0.073200  -355.964418  -605.117128  -125.807883   502.932002   526.215502   -88.616558
0.074400  -602.315949  -385.977685   303.062302   629.431076   192.185758  -484.377852
0.075600  -583.549655    38.801360   627.368726   442.583419  -302.387679  -677.375850
0.076800  -211.941810   515.854288   606.397746   -54.781015  -651.691693  -438.823976
0.078000   320.151563   676.686456   188.904040  -522.779621  -577.264899    71.757998
0.079200   618.650895   403.902608  -298.441289  -628.742319  -186.511653   473.660056
0.080400   545.359681   -42.597037  -562.864150  -401.389854   236.275268   589.737919
0.081600   229.862039  -414.434022  -557.363563   -25.622531   536.400625   450.198047
0.082800  -182.883069  -600.062764  -290.590972   385.691505   599.277494    74.913263
0.084000  -550.224709  -500.541139   173.059022   634.082751   314.858026  -398.058122
0.085200  -622.814493   -75.596322   570.021287   503.004417  -189.554001  -639.266944
0.086400  -296.077317   405.296312   600.375888    56.765592  -545.732047  -471.998893
0.087600   173.859341   595.712555   286.663107  -360.177184  -558.865142   -87.249063
0.088800   481.559478   467.132444  -110.273135  -551.182449  -333.339718   289.366502
0.090000   565.616994   157.361963  -447.144250  -513.712449    48.956129   561.281977
0.091200   394.208999  -266.764795  -612.731337  -202.383695   468.768155   563.385941
0.092400   -45.862793  -600.772738  -409.160406   292.706610   631.485487   183.169418
0.093600  -490.720930  -552.646259    74.311211   594.841163   375.108860  -297.605479
0.094800  -589.834989  -162.277378   450.445939   506.381678   -56.120897  -537.710091
0.096000  -359.459922   243.500439   538.797755   188.819219  -381.799021  -495.925728
0.097200   -13.364091   487.722005   398.565734  -174.357879  -540.660738  -253.761962
0.098400   345.181989   533.544261    69.341468  -492.502485  -452.961225   148.659421
0.099600   575.691554   292.490923  -358.483523  -569.809604   -75.245324   518.222424
0.100800   471.822360  -164.086202  -596.978792  -285.203479   378.883665   566.496422
0.102000    53.180944  -516.892582  -442.403304   172.302225   566.695928   260.052254
0.103200  -356.906394  -526.783135   -54.038624   472.446388   414.613594  -137.487570
0.104400  -514.455577  -270.017965   296.024197   500.719590   102.243879  -418.694978
0.105600  -435.801006    73.044432   499.584658   320.608739  -251.962924  -525.760937
0.106800  -158.962893   411.877764   486.873814   -46.942936  -530.799709  -357.925304
0.108000   263.490658   561.708133   163.264571  -438.558325  -497.457378    63.170217
