##TITLE=1D-13C-1-2-5-328-110-"no"-"yes"
##JCAMP-DX=5.01 $$ Magritek Spinsolve SPA1903 2.0.4.4423
##DATA TYPE=NMR FID
##DATA CLASS=NTUPLES
##ORIGIN=SPA1903 at Magritek
##OWNER=Copyright (C) 2025 by Magritek
##LONGDATE=2025/03/17 12:00:15.111
##.OBSERVE FREQUENCY=15.4860999900848
##.OBSERVE NUCLEUS=^13C
##.DELAY=( 20,  2000)
##.ACQUISITION MODE=SIMULTANEOUS
##.FIELD= 1.5
##.AVERAGES= 1
##.DIGITISER RES=16
##.SHIFT REFERENCE=(INTERNAL, Water, 4096, 0)
##$REFERENCE_POINT= 796.529    $$ Referencing label
$$      Distance of the zero axis position (in Hz) from the last data
$$      point (right edge); positive values -> right edge is below 0 Hz
##SPECTROMETER/DATA SYSTEM=Magritek
##SAMPLE DESCRIPTION=solvent=Water
$$ Bruker specific parameters
$$ --------------------------
##$AUNMP=   <proc_1d_nosref>
##$INSTRUM= <Magritek>
##$SI=      8192
##$TD=      8192
##$TDeff=   8192
##$SW=      322.870200
##$BF1=     15.4860999900848
##$SF=      15.4843965190859
##$LB=      0
##$PHC0=    216.6
##$PHC1=    0.0
##$REVERSE= yes
$$ End of Bruker specific parameters
$$ ---------------------------------
##NTUPLES=NMR FID
##VAR_NAME=        TIME,            FID/REAL,            FID/IMAG, PAGE NUMBER
##SYMBOL=             X,                   R,                   I,           N
##VAR_TYPE= INDEPENDENT,           DEPENDENT,           DEPENDENT,        PAGE
##VAR_FORM=        AFFN,                AFFN,                AFFN,        AFFN
##VAR_DIM=         8192,                8192,                8192,           2
##UNITS=        SECONDS,     ARBITRARY UNITS,     ARBITRARY UNITS,            
##FIRST=              0,                   0,                   0,           1
##LAST=    1.638199e+00,  -0.630678129460024,   0.214677354007516,           2
##MIN=                0,   -2379.51022406255,   -2339.12937835054,           1
##MAX=     1.638199e+00,    2319.21641436805,    2480.23510040333,           2
##FACTOR=             1,                   1,                   1,           1
##PAGE=N=1
##DATA TABLE=(X++(R..R)), XYDATA
0.000000     0.000000   998.927028 -1802.262881 -2318.185231    95.049113  2307.723080
0.001200  1650.050157 -1011.018778 -2379.510224  -813.063192  1699.441770  2078.296392
0.002400   -59.680882 -2067.756199 -1550.901161   808.323198  2160.093442   908.142034
0.003600 -1415.269838 -2029.631769  -204.965674  1879.135041  1703.590260  -538.950970
0.004800 -2159.802480 -1164.741203  1279.982406  2193.200753   421.240236 -1918.534270
0.006000 -1921.718717   473.084647  2319.216414  1295.256275 -1355.694102 -2349.070133
0.007200  -414.930831  2046.902006  1951.264678  -565.486331 -2369.798719 -1222.250716
0.008400  1433.923577  2279.126546   301.986941 -2014.825354 -1820.244333   600.791448
0.009600  2233.457695  1110.667798 -1333.155615 -2102.010920  -318.540751  1802.762030
0.010800  1708.933461  -429.208270 -2022.783434 -1168.070616  1080.400329  2017.316084
0.012000   527.393643 -1610.496509 -1812.023017   183.493878  1984.411028  1388.278848
0.013200  -920.251864 -2141.997022  -747.179331  1612.254309  2021.671979   -81.672807
0.014400 -2119.321758 -1534.858173   977.246610  2299.821545   755.063879 -1747.844429
0.015600 -2067.938557   194.676807  2199.878321  1450.295794 -1087.636052 -2238.431844
0.016800  -612.250521  1730.270859  1902.078549  -248.421649 -2041.460371 -1309.798308
0.018000   975.975930  2023.284456   618.526869 -1487.958616 -1777.084989    62.785507
0.019200  1810.268004  1376.742459  -709.077548 -1945.584593  -842.427786  1290.600668
0.020400  1892.226550   191.667947 -1791.749708 -1618.145491   568.361139  2097.883841
0.021600  1041.808729 -1332.999352 -2090.419483  -240.975055  1931.837973  1709.301386
0.022800  -652.796748 -2213.556716 -1014.147923  1449.508355  2096.457469   135.101180
0.024000 -1971.042525 -1611.526167   727.708340  2131.838961   897.988386 -1406.063073
0.025200 -1940.667653  -113.376290  1804.771610  1495.818216  -614.526673 -1936.417422
0.026400  -908.723281  1192.058646  1843.058102   276.357962 -1616.133292 -1555.736807
0.027600   382.780108  1860.623842  1096.088279 -1013.496070 -1920.661097  -490.094094
0.028800  1566.834162  1736.097403  -239.972922 -1966.101612 -1277.665808  1019.565563
0.030000  2079.615732   559.995795 -1677.206664 -1847.694940   293.199439  2083.191449
0.031200  1271.317027 -1129.807045 -2110.468643  -459.916907  1741.779167  1749.908422
0.032400  -393.433019 -2011.211765 -1129.253576  1108.611530  1940.136623   399.231740
0.033600 -1580.729979 -1594.496016   306.417534  1788.601855  1105.818075  -881.118538
0.034800 -1793.555393  -552.030585  1350.835284  1629.566784   -49.982427 -1686.144692
0.036000 -1303.178884   678.409896  1875.180194   786.707221 -1312.466021 -1832.309419
0.037200   -79.051007  1811.346061  1479.037927  -709.488107 -2041.661895  -827.655756
0.038400  1437.650299  1910.476283    -6.932922 -1914.419752 -1423.009754   836.785877
0.039600  2024.574367   696.320650 -1459.443277 -1776.181240    92.709197  1799.346696
0.040800  1273.521134  -782.180813 -1837.436066  -652.490714  1288.594426  1639.097642
0.042000    18.106705 -1593.859008 -1276.123564   568.411540  1723.318991   806.592898
0.043200 -1085.016561 -1679.262561  -232.290366  1512.970641  1433.920484  -404.154188
0.044400 -1784.079346  -989.698615  1050.225196  1829.848766   346.776677 -1595.773208
0.045600 -1576.550592   416.013731  1908.321202  1035.632731 -1138.502596 -1900.327679
0.046800  -284.679948  1681.805014  1550.820956  -510.427021 -1917.310592  -925.893288
0.048000  1181.114108  1793.643820   198.491022 -1605.561181 -1405.880308   494.495147
0.049200  1747.053906   858.702830 -1027.968876 -1639.905248  -277.663335  1397.344783
0.050400  1377.192642  -284.113239 -1594.934578  -989.689899   810.616337  1651.053745
0.051600   507.535418 -1285.178653 -1543.513018    99.765225  1661.090715  1202.305552
0.052800  -766.287635 -1823.853082  -626.661341  1382.218694  1690.888849  -120.977241
0.054000 -1803.607858 -1236.589658   886.163801  1899.923290   538.922172 -1481.598169
0.055200 -1639.189388   232.633438  1781.694771  1103.643327  -909.052405 -1760.435115
0.056400  -451.253444  1368.874937  1484.523668  -188.592261 -1587.281663 -1051.186911
0.057600   733.172359  1611.484778   553.986604 -1153.209033 -1478.886264   -27.195090
0.058800  1468.863465  1195.879246  -534.254416 -1643.229903  -764.563770  1075.555079
0.060000  1627.123389   175.105583 -1529.679949 -1370.513033   505.331227  1784.612864
0.061200   848.438497 -1152.775383 -1739.515962  -155.655632  1634.058891  1387.460383
0.062400  -587.081948 -1824.791503  -780.097985  1221.913150  1681.966426    60.998124
0.063600 -1606.514123 -1278.376969   600.885079  1702.251470   703.146148 -1125.986143
0.064800 -1545.972454   -92.107182  1431.468590  1207.030037  -454.993622 -1550.863019
0.066000  -776.975995   926.261582  1510.010060   277.168784 -1296.942049 -1312.803175
0.067200   264.734387  1545.066958   962.403546  -819.002781 -1636.978905  -441.511683
0.068400  1330.101247  1483.048369  -216.232625 -1682.173677 -1063.333805   895.824807
0.069600  1758.364951   422.736907 -1450.205945 -1505.023755   317.399170  1728.191085
0.070800   971.399471  -977.955427 -1683.670946  -302.584626  1419.433717  1363.749143
0.072000  -345.457870 -1582.882920  -874.343819   867.336189  1518.810549   334.270285
0.073200 -1216.450389 -1283.475314   184.156039  1418.246790   952.263848  -655.139722
0.074400 -1486.133223  -525.869372  1086.232882  1402.651491     7.868140 -1428.214665
0.075600 -1137.126898   572.861920  1612.034934   666.619357 -1139.384443 -1551.671249
0.076800   -27.360746  1550.215003  1201.749146  -652.260263 -1697.942820  -622.532458
0.078000  1228.311486  1540.117814   -64.496871 -1568.182618 -1109.689917   701.645927
0.079200  1610.393687   532.330730 -1176.388133 -1413.210198    71.288466  1431.147510
0.080400  1032.419490  -603.917324 -1476.153057  -560.085895  1005.359759  1347.300726
0.081600    70.498288 -1282.533513 -1092.776182   416.963024  1433.160924   722.435252
0.082800  -874.315706 -1431.142814  -250.194066  1265.598278  1253.897424  -319.828699
0.084000 -1530.297697  -860.204432   894.227699  1567.774835   292.937819 -1367.012242
0.085200 -1330.173238   374.827581  1624.306632   845.989831  -989.437822 -1577.122344
0.086400  -199.999860  1406.890336  1243.555496  -448.169174 -1548.752022  -731.924054
0.087600   954.515942  1431.666233   165.544388 -1253.985005 -1135.215500   341.500739
0.088800  1376.966708   749.162346  -759.482220 -1345.732157  -315.784533  1089.686517
0.090000  1196.002306  -134.219651 -1326.237065  -920.284615   624.157553  1438.568242
0.091200   504.475210 -1087.538592 -1369.930779    53.873486  1442.914704  1051.837891
0.092400  -666.270085 -1573.173492  -518.668156  1192.723855  1419.036527  -130.815131
0.093600 -1512.876899  -999.428602   754.212508  1549.652833   417.487106 -1196.109724
0.094800 -1313.144646   182.550665  1412.035083   897.564491  -690.113597 -1401.584034
0.096000  -410.116883  1047.388251  1215.868273   -78.280552 -1254.025740  -919.712053
0.097200   516.808492  1331.791911   540.766817  -904.427983 -1268.248378   -97.880217
0.098400  1210.239055  1064.505173  -396.243212 -1399.475294  -685.093767   890.257562
0.099600  1397.696661   169.852167 -1291.504767 -1164.279561   420.995297  1497.180602
0.100800   705.449745  -972.526398 -1442.533719  -111.550147  1358.208150  1126.135863
0.102000  -505.069938 -1484.127693  -612.197713   993.731966  1346.582960    41.712803
0.103200 -1282.964129 -1011.672686   471.363750  1335.932597   574.139146  -859.936988
0.104400 -1228.392426  -120.874564  1108.558073  1001.317967  -299.485089 -1242.630761
0.105600  -697.953495   695.444559  1264.821940   303.319808 -1043.920543 -1144.945926
0.106800   166.899582  1310.699935   851.829034  -682.051607 -1400.338533  -380.229675
0.108000  1140.385217  1248.027808  -209.611557 -1421.531306  -854.644644   782.316169
