##TITLE=1D-13C-1-5-5-328-110-"no"-"yes"
##JCAMP-DX=5.01 $$ Magritek Spinsolve SPA1903 2.0.4.4423
##DATA TYPE=NMR FID
##DATA CLASS=NTUPLES
##ORIGIN=SPA1903 at Magritek
##OWNER=Copyright (C) 2025 by Magritek
##LONGDATE=2025/02/12 14:32:14.958
##.OBSERVE FREQUENCY=15.4861775226891
##.OBSERVE NUCLEUS=^13C
##.DELAY=( 20,  5000)
##.ACQUISITION MODE=SIMULTANEOUS
##.FIELD= 1.5
##.AVERAGES= 1
##.DIGITISER RES=16
##.SHIFT REFERENCE=(INTERNAL, Water, 4096, 0)
##$REFERENCE_POINT= 796.520    $$ Referencing label
$$      Distance of the zero axis position (in Hz) from the last data
$$      point (right edge); positive values -> right edge is below 0 Hz
##SPECTROMETER/DATA SYSTEM=Magritek
##SAMPLE DESCRIPTION=solvent=Water
$$ Bruker specific parameters
$$ --------------------------
##$AUNMP=   <proc_1d_nosref>
##$INSTRUM= <Magritek>
##$SI=      8192
##$TD=      8192
##$TDeff=   8192
##$SW=      322.868600
##$BF1=     15.4861775226891
##$SF=      15.4844740431616
##$LB=      0
##$PHC0=    217.9
##$PHC1=    0.0
##$REVERSE= yes
$$ End of Bruker specific parameters
$$ ---------------------------------
##NTUPLES=NMR FID
##VAR_NAME=        TIME,            FID/REAL,            FID/IMAG, PAGE NUMBER
##SYMBOL=             X,                   R,                   I,           N
##VAR_TYPE= INDEPENDENT,           DEPENDENT,           DEPENDENT,        PAGE
##VAR_FORM=        AFFN,                AFFN,                AFFN,        AFFN
##VAR_DIM=         8192,                8192,                8192,           2
##UNITS=        SECONDS,     ARBITRARY UNITS,     ARBITRARY UNITS,            
##FIRST=              0,                   0,                   0,           1
##LAST=    1.638199e+00, -0.0535057563483884,   0.196525759115897,           2
##MIN=                0,   -186.835339245457,   -181.423434888765,           1
##MAX=     1.638199e+00,    179.602079713943,    191.505038214146,           2
##FACTOR=             1,                   1,                   1,           1
##PAGE=N=1
##DATA TABLE=(X++(R..R)), XYDATA
0.000000     0.000000    79.512825  -135.222464  -180.300058     2.445727   174.806130
0.001200   132.928091   -70.805029  -186.835339   -69.956783   126.956187   166.074010
0.002400     5.145287  -158.618180  -128.009130    58.803968   170.536777    78.465455
0.003600  -104.987332  -161.870737   -21.665771   142.336773   137.321992   -34.304977
0.004800  -167.876249   -96.552625    93.337258   170.982595    40.169788  -144.129034
0.006000  -153.678928    26.913507   174.087900   110.239815   -89.784521  -180.766061
0.007200   -47.082191   147.178177   161.212853   -27.465692  -181.854843  -109.687080
0.008400    94.373585   179.602080    45.310988  -144.648755  -151.714753    24.685356
0.009600   171.411299   109.819940   -82.933562  -168.597689   -47.041418   129.586202
0.010800   146.126458   -11.255465  -152.943620  -112.998809    66.366638   165.307607
0.012000    62.772835  -113.916436  -154.428929    -7.431201   150.751933   126.076916
0.013200   -51.817994  -169.784198   -78.929139   111.757515   165.994782    16.616988
0.014400  -154.611836  -136.922119    50.390179   177.218041    86.808573  -112.453359
0.015600  -171.591716   -13.359110   158.424509   133.900383   -54.885671  -171.750234
0.016800   -78.471256   111.804312   163.752408    15.703665  -149.412446  -129.583169
0.018000    43.415560   158.630503    80.401637   -93.785770  -152.852000   -29.428837
0.019200   130.006308   132.983882   -24.644153  -151.828062   -94.912872    78.668295
0.020400   160.072094    48.436856  -124.432883  -146.034558    11.395776   158.453894
0.021600   112.711168   -73.857398  -170.813998   -55.553256   127.737644   155.350466
0.022800    -9.465085  -164.595984  -114.996941    77.644720   172.155637    53.319006
0.024000  -129.047040  -151.724976    11.203142   158.736519   109.717324   -71.253371
0.025200  -161.326084   -53.784829   118.201914   145.308820    -2.089306  -143.484107
0.026400  -109.254524    58.309069   151.734743    67.137042  -101.749173  -145.794532
0.027600   -15.052714   135.135596   123.008526   -40.602027  -154.591713   -80.751178
0.028800    94.436784   156.438980    25.776022  -139.822133  -137.896073    35.691397
0.030000   163.479267    88.799247   -92.851144  -162.345866   -30.978302   144.295182
0.031200   138.477012   -39.010310  -163.848942   -86.370007    93.731531   160.263525
0.032400    27.101508  -137.314555  -131.137523    33.434392   154.257799    86.098822
0.033600   -85.446693  -148.816127   -36.193444   118.747140   129.543118   -20.046884
0.034800  -140.989083   -92.982371    65.075992   149.097714    53.973194  -109.457923
0.036000  -139.709407    -0.481605   141.854599   113.078736   -56.786082  -161.239508
0.037200   -64.859842   112.190664   152.415421     3.122458  -149.085842  -117.720769
0.038400    60.857162   166.102445    65.463075  -114.500037  -146.529226     0.070378
0.039600   146.786034   113.415248   -59.080949  -156.378244   -61.351779   104.812743
0.040800   142.402837     4.175693  -134.645991  -109.233240    45.466753   143.677257
0.042000    65.740503   -89.922663  -138.471497   -20.576350   121.785735   115.051331
0.043200   -31.150383  -142.198617   -77.878977    81.681391   145.880192    33.143834
0.044400  -119.884926  -126.599565    22.312803   146.896699    93.772185   -78.387814
0.045600  -151.458439   -37.380421   125.131750   133.018517   -23.038369  -152.601050
0.046800   -95.267999    75.271720   150.849745    37.115546  -123.596942  -128.878933
0.048000    21.939283   144.749125    90.500588   -74.739991  -143.773987   -37.610220
0.049200   112.305507   124.183093   -13.645370  -133.525474   -93.350410    59.009303
0.050400   139.766424    49.098788   -99.259392  -127.900356    -3.525231   127.488860
0.051600   101.762442   -42.543200  -140.189617   -65.748565    92.445573   142.503892
0.052800    15.463930  -131.310354  -118.319118    42.334101   154.088673    70.602303
0.054000   -98.498317  -145.117087   -14.127723   136.415536   116.763089   -47.214297
0.055200  -150.880633   -70.025902    95.941112   141.518540    13.839075  -127.937439
0.056400  -109.275257    43.449128   140.953399    66.893973   -81.535574  -131.367761
0.057600   -23.580018   113.768355   111.511904   -23.360530  -128.939443   -79.258700
0.058800    67.641579   136.327125    42.615040  -104.325562  -123.248641     9.655658
0.060000   133.020622    95.267628   -64.043036  -146.740786   -50.587030   109.744060
0.061200   132.833417    -8.235922  -138.642111   -99.482778    63.652045   147.446852
0.062400    48.744707  -112.795864  -130.293707    11.144767   134.998683    93.737687
0.063600   -62.110084  -141.610912   -47.499575   102.409028   127.066285    -4.569982
0.064800  -127.024713   -93.345038    50.791505   133.263725    53.833020   -86.063700
0.066000  -124.582325   -10.129092   119.273242   102.130251   -37.811482  -131.749859
0.067200   -65.637606    80.313991   131.126227    22.339953  -117.194876  -115.638062
0.068400    28.642375   139.435081    76.610335   -84.434807  -140.136985   -24.127457
0.069600   121.965061   118.647946   -31.104151  -142.885948   -75.593699    84.291512
0.070800   137.607162    22.324279  -118.406553  -113.008798    30.665044   135.170651
0.072000    72.768992   -75.827901  -127.978218   -27.034837   103.509393   109.031336
0.073200   -17.336884  -122.100072   -78.257777    57.224406   124.910121    41.697747
0.074400   -93.206052  -117.855905     2.206916   118.654746    91.371344   -48.638004
0.075600  -134.110101   -54.481148    95.645521   129.415622     4.148694  -127.713939
0.076800   -99.800111    52.734793   140.181671    54.619187   -96.473141  -127.530780
0.078000     0.472770   130.847126    95.872093   -53.016593  -133.178032   -52.225604
0.079200    91.814963   122.380922     4.997816  -116.128749   -94.575680    43.341086
0.080400   125.088889    54.216272   -80.401180  -118.034542   -14.558017   106.315274
0.081600    98.383718   -28.608793  -122.705385   -66.956010    71.809705   123.537721
0.082800    28.346131  -103.150250  -106.942658    20.099009   124.928363    79.290301
0.084000   -66.470745  -131.401645   -33.582743   104.857456   115.746187   -18.189568
0.085200  -129.671027   -82.780477    69.354847   134.091663    33.078926  -105.802140
0.086400  -113.894308    17.295596   126.081749    77.296431   -63.937513  -125.423130
0.087600   -33.516095    98.214125   107.539086   -12.950159  -116.748304   -80.300220
0.088800    49.017163   120.289441    43.027487   -85.340511  -110.448438    -4.181048
0.090000   110.550504    90.934788   -39.135873  -123.717667   -58.769412    78.394707
0.091200   119.513470    12.449947  -112.303310  -102.179362    36.448381   132.028066
0.092400    64.048743   -83.183831  -125.925210   -12.581434   116.778515   103.495632
0.093600   -38.617850  -130.253952   -58.244755    82.439847   121.837479    12.651908
0.094800  -109.159197   -96.862582    31.917712   119.723233    60.815382   -71.118945
0.096000  -114.614488   -21.149244    96.304482    96.317910   -22.243964  -112.273821
0.097200   -69.692053    56.492898   116.950703    32.268115   -90.025459  -104.408156
0.098400     7.841745   112.681788    80.788636   -51.972218  -123.111390   -42.821790
0.099600    92.273157   114.524612    -5.628341  -119.608277   -87.484156    52.479861
0.100800   126.773138    41.967095   -94.681406  -113.630801     9.679662   119.708622
0.102000    84.562442   -53.807075  -121.561348   -38.836856    89.061362   107.669625
0.103200    -3.412502  -108.588115   -79.583107    44.165633   112.731564    43.577663
0.104400   -76.105613  -106.061914    -9.353207   100.732528    87.254984   -31.097648
0.105600  -110.786415   -58.331549    68.750829   111.880019    19.727919   -99.041234
0.106800   -97.918716    23.801281   117.124373    67.551266   -66.158663  -120.445552
0.108000   -24.061335   103.852265   100.607496   -25.616981  -121.334438   -67.460797
