##TITLE=1D-13C-1-2-5-328-110-"no"-"yes"
##JCAMP-DX=5.01 $$ Magritek Spinsolve SPA1903 2.0.4.4423
##DATA TYPE=NMR FID
##DATA CLASS=NTUPLES
##ORIGIN=SPA1903 at Magritek
##OWNER=Copyright (C) 2025 by Magritek
##LONGDATE=2025/03/17 11:56:33.673
##.OBSERVE FREQUENCY=15.4860999900848
##.OBSERVE NUCLEUS=^13C
##.DELAY=( 20,  2000)
##.ACQUISITION MODE=SIMULTANEOUS
##.FIELD= 1.5
##.AVERAGES= 1
##.DIGITISER RES=16
##.SHIFT REFERENCE=(INTERNAL, Water, 4096, 0)
##$REFERENCE_POINT= 796.529    $$ Referencing label
$$      Distance of the zero axis position (in Hz) from the last data
$$      point (right edge); positive values -> right edge is below 0 Hz
##SPECTROMETER/DATA SYSTEM=Magritek
##SAMPLE DESCRIPTION=solvent=Water
$$ Bruker specific parameters
$$ --------------------------
##$AUNMP=   <proc_1d_nosref>
##$INSTRUM= <Magritek>
##$SI=      8192
##$TD=      8192
##$TDeff=   8192
##$SW=      322.870200
##$BF1=     15.4860999900848
##$SF=      15.4843965190859
##$LB=      0
##$PHC0=    217.6
##$PHC1=    0.0
##$REVERSE= yes
$$ End of Bruker specific parameters
$$ ---------------------------------
##NTUPLES=NMR FID
##VAR_NAME=        TIME,            FID/REAL,            FID/IMAG, PAGE NUMBER
##SYMBOL=             X,                   R,                   I,           N
##VAR_TYPE= INDEPENDENT,           DEPENDENT,           DEPENDENT,        PAGE
##VAR_FORM=        AFFN,                AFFN,                AFFN,        AFFN
##VAR_DIM=         8192,                8192,                8192,           2
##UNITS=        SECONDS,     ARBITRARY UNITS,     ARBITRARY UNITS,            
##FIRST=              0,                   0,                   0,           1
##LAST=    1.638199e+00,   -1.06754776731604,   0.168412970752396,           2
##MIN=                0,   -15559.5423608543,   -14697.4175269256,           1
##MAX=     1.638199e+00,    14936.6073072313,    16119.0034613173,           2
##FACTOR=             1,                   1,                   1,           1
##PAGE=N=1
##DATA TABLE=(X++(R..R)), XYDATA
0.000000     0.000000  6451.671868 -11897.331451 -15008.687503   715.967354 14936.607307
0.001200 10758.151919 -6533.471199 -15559.542361 -5334.832759 11179.676560 13601.782986
0.002400  -495.729415 -13524.480529 -10017.312100  5363.495515 14090.165256  5798.629600
0.003600 -9449.755510 -13161.676334  -921.108081 12344.350436 10664.614647 -3876.176764
0.004800 -13839.310373 -7081.621449  8508.520809 13894.950104  2127.780811 -12455.132666
0.006000 -11725.858239  3530.126091 14496.806180  7590.826798 -8768.315560 -14372.140072
0.007200 -2133.382013 12836.817350 11839.935625 -3905.438608 -14699.824649 -7147.060378
0.008400  9141.924528 13906.291384  1494.275913 -12532.856952 -10955.144845  4004.456848
0.009600 13799.595963  6515.939350 -8557.445571 -12840.556574 -1452.498459 11386.254539
0.010800 10196.521085 -3198.373858 -12516.165413 -6662.729200  7193.262566 12233.921840
0.012000  2406.616913 -10231.370516 -10418.267982  1926.687561 11961.312542  7619.924106
0.013200 -6097.678611 -12631.011133 -3645.093840 10060.968930 11431.666072 -1378.118436
0.014400 -12553.798433 -8299.213832  6277.453034 13268.972822  3777.169991 -10619.074465
0.015600 -11767.061514  1882.855902 13042.223937  7809.510416 -6955.423368 -12896.270200
0.016800 -2911.747011 10515.342335 10794.286034 -2247.180285 -12200.731312 -6916.989132
0.018000  6539.868302 11619.193697  2671.333336 -9189.025028 -9856.653960  1300.821876
0.019200 10805.757318  7178.245878 -5089.936659 -11097.742420 -3741.079384  8074.138578
0.020400 10242.314772    36.289530 -10453.762776 -8319.485552  4208.008178 11769.886662
0.021600  4820.802716 -8215.980210 -11201.015555  -299.828596 11114.320493  8817.869548
0.022800 -4536.345683 -12336.855980 -4721.858977  8800.226204 11278.124759  -292.593379
0.024000 -11342.344766 -8217.697725  4964.753205 11830.991431  4057.381927 -8555.267431
0.025200 -10447.898872   484.295303 10569.744009  7537.331512 -4531.028064 -10792.006276
0.026400 -3944.176279  7463.359226  9734.938357   270.358230 -9461.168369 -7688.460620
0.027600  3398.079410 10281.402383  4706.742753 -6492.646710 -9873.307192 -1351.061107
0.028800  8972.278564  8510.376417 -2505.221551 -10641.256273 -5666.075293  6382.307843
0.030000 10615.702047  1773.702645 -9370.923396 -9076.719912  2575.803979 11210.209847
0.031200  5800.570196 -6938.910020 -10900.544533 -1232.045657  9787.333561  8568.919427
0.032400 -3164.817683 -10864.252629 -5038.504882  6955.583872 10078.067133   710.715699
0.033600 -9147.463032 -7563.497566  2970.960445  9585.513959  4607.196409 -5790.470985
0.034800 -9082.273803 -1389.135878  7845.220988  7502.049850 -1766.235734 -8815.539811
0.036000 -5357.738303  4578.891426  9195.037824  2655.102516 -7359.528817 -8475.987889
0.037200   928.559026  9333.043396  6271.722557 -4634.718687 -9971.692058 -2938.708921
0.038400  7919.325277  8966.453908 -1286.077233 -9945.263407 -6089.548633  5339.751702
0.039600  9963.973728  2168.033972 -8159.467058 -8226.391438  1838.240480  9424.227120
0.040800  5258.017384 -5232.475007 -9021.796661 -1737.323366  7381.641205  7313.065440
0.042000 -1493.484728 -8261.146363 -5019.697310  4186.556142  8267.868724  2344.916949
0.043200 -6361.010621 -7313.125490   553.636785  7703.926195  5593.205662 -3292.721742
0.044400 -8341.484784 -3274.184955  5984.138301  8008.003161    79.191859 -8026.270572
0.045600 -6241.815454  3267.627559  8851.638737  3556.311055 -6294.855357 -8430.569466
0.046800    66.137423  8540.690435  6242.793966 -3819.474834 -8984.086986 -3011.809681
0.048000  6586.084582  7969.005632  -557.806176 -8317.410858 -5600.482334  3967.243726
0.049200  8315.575510  2403.843735 -6114.493280 -7018.253179   463.582528  7244.751757
0.050400  5201.879265 -3077.829517 -7475.768331 -2816.074766  5065.749262  6796.187195
0.051600   486.152048 -6448.129388 -5774.509635  1959.875370  7527.672369  3930.825544
0.052800 -4633.696745 -7636.459542 -1238.070277  6840.908227  6621.434123 -1894.232198
0.054000 -8271.298698 -4342.097818  5179.020376  8249.894598   912.207284 -7545.521133
0.055200 -6485.194382  2634.570911  8360.140513  3635.217315 -5509.680323 -7660.650532
0.056400  -312.080806  7209.747330  5674.073103 -2695.326240 -7476.387836 -3101.959970
0.057600  4791.594292  6723.461020   621.962547 -6093.485817 -5444.626172  1708.215118
0.058800  6747.560908  3655.278021 -3797.630603 -6687.967199 -1578.030442  5512.172351
0.060000  6085.510553  -808.881350 -6926.733546 -4576.147132  3559.557587  7385.868176
0.061200  2079.561390 -5851.464121 -6656.208102   793.804394  7420.481489  4837.739267
0.062400 -3925.657809 -7801.386099 -1830.266635  6343.912300  6500.069133 -1340.654307
0.063600 -7409.052234 -4296.085897  4126.328516  7351.503216  1386.712853 -6131.684554
0.064800 -5851.533121  1508.394854  6723.737997  3714.911615 -3633.931227 -6475.395371
0.066000 -1474.261905  5211.053989  5455.370005  -849.380422 -5941.131702 -3892.959331
0.067200  2688.067964  6102.890760  2277.069800 -4414.181345 -5886.222214  -122.275375
0.068400  5920.614371  4758.616729 -2286.905682 -6656.850295 -2892.152050  4601.342982
0.069600  6558.132543   263.374829 -6527.435370 -5138.379493  2777.836361  7192.298021
0.070800  2553.193682 -5241.711691 -6410.943681   437.757115  6647.459949  4461.260111
0.072000 -3214.281025 -6682.673059 -1814.199783  5056.512005  5485.236143  -692.190213
0.073200 -5751.532497 -3763.857915  2610.497149  5693.648405  1935.758081 -4031.798141
0.074400 -5082.178829   -66.936031  4953.609975  4056.626423 -1639.434147 -5461.722630
0.075600 -2800.534287  3390.114455  5630.906856   919.334849 -5112.109060 -4882.220287
0.076800  1455.437622  6077.848808  3224.929428 -3715.388728 -6165.432863  -863.977932
0.078000  5657.265908  5053.060136 -1941.592938 -6415.492255 -2817.091242  4184.463654
0.079200  5910.168399   328.268285 -5623.521941 -4522.835091  2192.512661  5995.788806
0.080400  2280.109266 -4024.138722 -5192.334110  -148.744170  4893.766192  3992.090095
0.081600 -1695.845013 -5243.776639 -2381.344760  3262.853618  4846.851042   669.447467
0.082800 -4199.019754 -4105.690188   860.703762  4915.833930  3085.324035 -2598.954671
0.084000 -5212.807439 -1459.465974  4151.492007  4779.092725  -467.637687 -5329.677913
0.085200 -3695.798193  2690.069169  5864.049531  1643.130951 -4720.743689 -5160.151890
0.086400   884.644635  5809.802613  3451.969992 -3223.546189 -5826.965284 -1103.134526
0.087600  4925.285736  4662.657135 -1364.014673 -5464.232516 -2723.968450  3166.017448
0.088800  4973.235623   774.057002 -4150.392297 -3961.152047   895.281031  4534.629941
0.090000  2715.369624 -2246.591435 -4460.715489 -1421.345408  3267.170812  4147.655738
0.091200   106.910832 -4220.434586 -3563.982530  1558.055006  4948.565542  2265.612558
0.092400 -3318.388713 -4917.338641  -416.664585  4760.866344  4101.474287 -1815.920482
0.093600 -5588.943334 -2260.341349  3959.616262  5101.743404  -159.798824 -5111.043586
0.094800 -3655.428073  2292.137944  5327.836908  1691.285998 -3984.959763 -4532.967573
0.096000   529.275691  4674.916209  2988.922069 -2131.514174 -4510.987615 -1484.445494
0.097200  3245.370966  3986.379097   -91.303179 -3938.429958 -2985.216038  1427.957522
0.098400  4066.756699  1936.123014 -2524.751658 -4080.465974  -682.958759  3668.772964
0.099600  3575.680938  -928.208406 -4342.244452 -2493.074054  2473.079721  4552.875494
0.100800  1000.645868 -3971.659742 -4051.684065  1037.084893  4876.953253  2558.881734
0.102000 -2982.220957 -4769.635462  -574.989225  4335.193237  3788.777570 -1524.460241
0.103200 -4851.246485 -2020.244652  3244.482977  4294.432932    25.320700 -4064.690895
0.104400 -3049.653097  1574.076912  4090.181477  1610.445667 -2677.682789 -3599.015880
0.105600  -229.817492  3262.342902  2807.524214  -885.288273 -3468.653778 -2005.121619
0.106800  1840.439636  3611.019908  1066.070161 -2908.416874 -3447.175576   281.571918
0.108000  3787.114874  2691.740769 -1813.935676 -4237.317132 -1399.858496  3364.799065
