##TITLE=1D-13C-1-2-5-328-110-"no"-"yes"
##JCAMP-DX=5.01 $$ Magritek Spinsolve SPA1903 2.0.4.4423
##DATA TYPE=NMR FID
##DATA CLASS=NTUPLES
##ORIGIN=SPA1903 at Magritek
##OWNER=Copyright (C) 2025 by Magritek
##LONGDATE=2025/03/17 11:56:59.497
##.OBSERVE FREQUENCY=15.4860999900848
##.OBSERVE NUCLEUS=^13C
##.DELAY=( 20,  2000)
##.ACQUISITION MODE=SIMULTANEOUS
##.FIELD= 1.5
##.AVERAGES= 1
##.DIGITISER RES=16
##.SHIFT REFERENCE=(INTERNAL, Water, 4096, 0)
##$REFERENCE_POINT= 796.529    $$ Referencing label
$$      Distance of the zero axis position (in Hz) from the last data
$$      point (right edge); positive values -> right edge is below 0 Hz
##SPECTROMETER/DATA SYSTEM=Magritek
##SAMPLE DESCRIPTION=solvent=Water
$$ Bruker specific parameters
$$ --------------------------
##$AUNMP=   <proc_1d_nosref>
##$INSTRUM= <Magritek>
##$SI=      8192
##$TD=      8192
##$TDeff=   8192
##$SW=      322.870200
##$BF1=     15.4860999900848
##$SF=      15.4843965190859
##$LB=      0
##$PHC0=    217.5
##$PHC1=    0.0
##$REVERSE= yes
$$ End of Bruker specific parameters
$$ ---------------------------------
##NTUPLES=NMR FID
##VAR_NAME=        TIME,            FID/REAL,            FID/IMAG, PAGE NUMBER
##SYMBOL=             X,                   R,                   I,           N
##VAR_TYPE= INDEPENDENT,           DEPENDENT,           DEPENDENT,        PAGE
##VAR_FORM=        AFFN,                AFFN,                AFFN,        AFFN
##VAR_DIM=         8192,                8192,                8192,           2
##UNITS=        SECONDS,     ARBITRARY UNITS,     ARBITRARY UNITS,            
##FIRST=              0,                   0,                   0,           1
##LAST=    1.638199e+00,  -0.205083945673544,   0.296735292706492,           2
##MIN=                0,    -12390.250585884,   -11725.9668906683,           1
##MAX=     1.638199e+00,    11927.9825824822,    12859.1979911527,           2
##FACTOR=             1,                   1,                   1,           1
##PAGE=N=1
##DATA TABLE=(X++(R..R)), XYDATA
0.000000     0.000000  5146.043871 -9477.510373 -11984.669777   564.384226 11927.982582
0.001200  8565.414295 -5250.650824 -12390.250586 -4221.032251  8895.427001 10815.516390
0.002400  -383.197787 -10763.026539 -7982.814888  4254.883108 11216.877332  4639.033677
0.003600 -7485.270698 -10497.108738  -813.498550  9821.334982  8588.081012 -3027.541314
0.004800 -11082.461769 -5735.383282  6759.966632 11157.064590  1805.400662 -9943.647547
0.006000 -9499.775854  2739.111891 11692.364470  6207.249871 -7031.159069 -11628.942793
0.007200 -1774.435522 10345.334108  9591.061232 -3106.891857 -11865.294623 -5821.009255
0.008400  7357.834536 11255.767126  1233.689325 -10111.737821 -8866.034845  3196.383050
0.009600 11128.236867  5307.255484 -6860.048375 -10391.321726 -1237.706369  9156.363153
0.010800  8270.409623 -2501.150520 -10078.578408 -5458.902697  5697.992276  9910.187308
0.012000  2097.371549 -8216.268004 -8544.732320  1429.274398  9703.661636  6310.899491
0.013200 -4852.730327 -10303.331454 -3115.039149  8111.630404  9426.242804  -972.127013
0.014400 -10248.847992 -6907.720761  5045.001180 10892.414238  3190.943670 -8625.486421
0.015600 -9684.677905  1428.622826 10649.704115  6487.488663 -5606.666578 -10575.418003
0.016800 -2476.361126  8536.714639  8865.041048 -1717.624660 -9926.862093 -5771.957338
0.018000  5222.111545  9537.174037  2332.175813 -7442.484328 -8136.536163   912.638242
0.019200  8780.726822  6002.418042 -3983.181495 -9118.690518 -3277.618304  6511.922321
0.020400  8522.686323   213.201231 -8552.722452 -6992.758630  3281.778918  9708.571251
0.021600  4169.967793 -6654.549977 -9356.555438  -437.261872  9148.432918  7427.764478
0.022800 -3603.713841 -10208.677388 -4067.969001  7154.796294  9407.359138   -63.741056
0.024000 -9341.356651 -6932.512314  3971.002659  9793.992107  3501.722848 -6947.253239
0.025200 -8693.822608   215.891517  8660.763073  6376.751243 -3561.795941 -8935.301969
0.026400 -3448.034678  6038.825855  8128.149705   442.238411 -7731.921809 -6530.080874
0.027600  2582.276614  8534.833985  4144.691237 -5230.691690 -8309.397102 -1357.032134
0.028800  7382.151078  7256.039851 -1867.950091 -8877.612994 -4952.258787  5177.241211
0.030000  8975.841904  1687.345975 -7781.961202 -7725.738602  1991.101947  9373.406415
0.031200  5026.906294 -5659.252670 -9186.483740 -1221.314628  8123.815473  7299.212803
0.032400 -2494.447962 -9070.525584 -4361.981386  5647.840975  8467.954331   822.736111
0.033600 -7534.401089 -6481.159486  2271.043191  8014.152639  4059.672570 -4673.399899
0.034800 -7679.935843 -1419.981923  6448.902748  6481.302652 -1221.823263 -7425.248924
0.036000 -4763.553547  3684.854250  7846.931490  2476.826449 -6108.441786 -7320.745323
0.037200   550.280637  7891.759367  5542.237991 -3764.638343 -8533.003295 -2692.894048
0.038400  6622.521233  7715.062806  -891.010390 -8386.660253 -5353.530736  4344.197784
0.039600  8516.378775  2052.823823 -6819.766574 -7096.761459  1352.776765  7933.980351
0.040800  4648.287802 -4220.125912 -7701.429264 -1735.052653  6131.320673  6366.703535
0.042000 -1016.831482 -6975.637878 -4485.377425  3330.393941  7076.687990  2289.116210
0.043200 -5249.892232 -6416.300576   169.293241  6538.531482  5032.365058 -2582.907959
0.044400 -7193.675674 -3078.393606  4968.222650  7023.219882   351.524316 -6843.284400
0.045600 -5602.138241  2599.904708  7676.114309  3297.551100 -5277.257656 -7371.504378
0.046800  -197.057425  7272.371579  5580.923435 -3059.499937 -7767.088942 -2816.959823
0.048000  5520.688708  6952.154827  -230.228465 -7038.237999 -5004.965537  3135.116193
0.049200  7158.847246  2369.424094 -5055.671131 -6175.229196   100.852766  6124.530940
0.050400  4707.961086 -2347.427668 -6449.780800 -2759.718949  4142.374220  6047.517341
0.051600   757.096172 -5500.799664 -5245.105559  1421.700569  6546.615762  3706.826025
0.052800 -3814.209935 -6773.447333 -1375.817826  5866.405369  5958.732992 -1420.237364
0.054000 -7190.761165 -4004.147506  4293.643450  7246.431212  1074.456826 -6428.467874
0.055200 -5833.224807  2026.267585  7244.730346  3394.478072 -4558.990829 -6712.215371
0.056400  -569.246193  6090.756353  5122.215579 -2017.532954 -6465.374600 -2995.504986
0.057600  3922.858402  5949.496412   872.956588 -5140.127268 -4960.637726  1151.315140
0.058800  5863.079000  3508.915692 -3067.016451 -5967.350399 -1702.227236  4694.048471
0.060000  5528.829214  -414.172299 -6036.373683 -4292.904672  2881.310211  6586.290087
0.061200  2133.373359 -5019.466708 -6026.734373   448.081943  6477.590829  4471.620662
0.062400 -3215.846283 -6895.600214 -1897.441515  5411.452242  5886.320454  -904.632420
0.063600 -6461.341452 -3990.445699  3377.861378  6477.081953  1515.138909 -5183.101696
0.064800 -5309.581417   996.539723  5841.423308  3539.942192 -2912.705765 -5740.925808
0.066000 -1633.917726  4369.379613  5005.710514  -369.199551 -5190.010366 -3769.830291
0.067200  2100.703219  5500.548764  2339.199734 -3748.536124 -5398.946470  -429.679104
0.068400  5201.878034  4510.475917 -1787.378427 -6012.123738 -2856.000518  3962.993217
0.069600  5988.792310   484.699843 -5741.411199 -4778.080921  2221.983248  6426.799517
0.070800  2538.477188 -4493.251080 -5824.023805   111.276840  5792.946278  4173.722450
0.072000 -2556.548904 -5936.812584 -1941.507494  4258.315443  5054.333311  -257.015550
0.073200 -5023.005850 -3626.179472  2007.337318  5101.083465  2093.722757 -3354.187120
0.074400 -4748.071717  -452.820174  4360.062418  3957.831613 -1178.898393 -4980.428578
0.075600 -2835.580049  2860.784702  5230.493964  1145.395129 -4518.580387 -4647.135010
0.076800  1036.609784  5515.266490  3182.219447 -3164.635602 -5664.614467 -1066.114413
0.078000  4967.877229  4762.298761 -1454.418789 -5772.818493 -2823.967081  3545.091082
0.079200  5429.701817   600.980758 -4899.054379 -4268.068801  1624.584747  5353.816843
0.080400  2393.655033 -3337.599839 -4816.711547  -500.554979  4266.968157  3841.018208
0.081600 -1177.798584 -4701.306827 -2509.295105  2654.044639  4536.443252  1006.777522
0.082800 -3668.660451 -3996.591186   455.735840  4466.040369  3126.804532 -2113.702156
0.084000 -4874.191452 -1677.704388  3660.648069  4591.955151  -146.669505 -4852.789692
0.085200 -3612.652376  2235.339201  5396.266596  1776.006319 -4131.457206 -4859.372663
0.086400   526.901390  5231.060477  3362.266816 -2687.699073 -5312.627396 -1282.511331
0.087600  4245.642517  4375.292585  -878.395382 -4858.227270 -2773.001499  2556.238486
0.088800  4582.295313  1067.463531 -3552.641921 -3807.573088   429.820213  4059.365848
0.090000  2820.569573 -1731.498330 -4189.239131 -1685.062272  2828.697404  4033.110445
0.091200   419.515485 -3846.503688 -3552.054292  1185.058053  4632.575882  2381.072238
0.092400 -2923.433832 -4691.749493  -619.563152  4329.728450  3955.077600 -1447.023921
0.093600 -5132.106708 -2320.173688  3439.583100  4802.802440   132.340168 -4594.721473
0.094800 -3549.176221  1842.865673  4864.012433  1823.361003 -3400.909691 -4271.844883
0.096000   128.334594  4164.427909  3012.725075 -1644.502733 -4171.887669 -1694.723099
0.097200  2748.874366  3826.632448   289.769688 -3523.480897 -3062.905922  1005.911174
0.098400  3842.944866  2131.847107 -2159.289595 -3949.050744  -945.778017  3321.687571
0.099600  3588.400726  -586.859237 -4118.708843 -2625.150223  2158.533748  4392.415353
0.100800  1179.918321 -3626.783913 -3953.172805   735.716513  4545.624128  2628.997145
0.102000 -2589.213439 -4541.864033  -798.383936  3916.980254  3680.539467 -1150.312101
0.103200 -4451.600833 -2140.943765  2740.733348  4077.550015   375.836288 -3620.421695
0.104400 -3069.421289  1123.194014  3777.452734  1837.507701 -2195.196047 -3498.622023
0.105600  -636.208048  2905.033041  2944.040487  -478.767921 -3311.785884 -2247.826219
0.106800  1513.174227  3573.751164  1353.200476 -2649.923122 -3520.107538   -13.508367
0.108000  3632.648786  2830.895334 -1548.289943 -4120.733402 -1567.685517  3068.558204
