##TITLE=1D-13C-1-2-5-328-110-"no"-"yes"
##JCAMP-DX=5.01 $$ Magritek Spinsolve SPA1903 2.0.4.4423
##DATA TYPE=NMR FID
##DATA CLASS=NTUPLES
##ORIGIN=SPA1903 at Magritek
##OWNER=Copyright (C) 2025 by Magritek
##LONGDATE=2025/03/17 11:56:12.429
##.OBSERVE FREQUENCY=15.4860999900848
##.OBSERVE NUCLEUS=^13C
##.DELAY=( 20,  2000)
##.ACQUISITION MODE=SIMULTANEOUS
##.FIELD= 1.5
##.AVERAGES= 1
##.DIGITISER RES=16
##.SHIFT REFERENCE=(INTERNAL, Water, 4096, 0)
##$REFERENCE_POINT= 796.529    $$ Referencing label
$$      Distance of the zero axis position (in Hz) from the last data
$$      point (right edge); positive values -> right edge is below 0 Hz
##SPECTROMETER/DATA SYSTEM=Magritek
##SAMPLE DESCRIPTION=solvent=Water
$$ Bruker specific parameters
$$ --------------------------
##$AUNMP=   <proc_1d_nosref>
##$INSTRUM= <Magritek>
##$SI=      8192
##$TD=      8192
##$TDeff=   8192
##$SW=      322.870200
##$BF1=     15.4860999900848
##$SF=      15.4843965190859
##$LB=      0
##$PHC0=    217.2
##$PHC1=    0.0
##$REVERSE= yes
$$ End of Bruker specific parameters
$$ ---------------------------------
##NTUPLES=NMR FID
##VAR_NAME=        TIME,            FID/REAL,            FID/IMAG, PAGE NUMBER
##SYMBOL=             X,                   R,                   I,           N
##VAR_TYPE= INDEPENDENT,           DEPENDENT,           DEPENDENT,        PAGE
##VAR_FORM=        AFFN,                AFFN,                AFFN,        AFFN
##VAR_DIM=         8192,                8192,                8192,           2
##UNITS=        SECONDS,     ARBITRARY UNITS,     ARBITRARY UNITS,            
##FIRST=              0,                   0,                   0,           1
##LAST=    1.638199e+00,    0.25611672932503,  0.0101634075633761,           2
##MIN=                0,   -18467.0627492973,   -17459.8680335619,           1
##MAX=     1.638199e+00,     17661.038297969,    19115.1188369282,           2
##FACTOR=             1,                   1,                   1,           1
##PAGE=N=1
##DATA TABLE=(X++(R..R)), XYDATA
0.000000     0.000000  7659.531304 -14167.600241 -17799.722040   847.886308 17661.038298
0.001200 12779.018697 -7651.766567 -18467.062749 -6457.448309 13225.967571 16230.373729
0.002400  -530.944094 -16097.724524 -11943.059922  6368.164786 16778.875313  6910.053307
0.003600 -11261.325307 -15672.117210 -1046.785892 14728.773713 12623.120469 -4691.651948
0.004800 -16418.209595 -8310.429464 10161.803129 16439.071272  2394.345699 -14818.482980
0.006000 -13745.916202  4356.784701 17085.839771  8752.428183 -10396.824611 -16794.710487
0.007200 -2406.450936 15080.266079 13844.497977 -4665.075289 -17266.899835 -8294.293286
0.008400 10797.426104 16240.342865  1663.169159 -14670.759073 -12783.710934  4710.389224
0.009600 16172.867428  7630.829322 -10083.388142 -15066.995447 -1627.916534 13391.176512
0.010800 11928.145760 -3822.330885 -14730.505055 -7744.100057  8590.308885 14355.373394
0.012000  2617.862559 -12128.253871 -12056.074239  2468.435276 13989.921887  8718.969405
0.013200 -7288.126419 -14708.632249 -4016.640854 11890.602984 13153.193979 -1882.662202
0.014400 -14601.813281 -9377.270887  7444.796665 15296.746694  4180.418127 -12394.537440
0.015600 -13500.014597  2381.121287 15114.754199  8850.810283 -8192.583531 -14847.001051
0.016800 -3199.660231 12242.167023 12405.725041 -2775.207674 -14188.065935 -7848.539887
0.018000  7758.300947 13405.093532  2887.514825 -10744.718344 -11317.704299  1698.654054
0.019200 12595.604633  8141.743936 -6146.917657 -12828.801573 -4017.832473  9530.580388
0.020400 11654.271280  -279.375651 -12129.932077 -9349.467309  5119.477451 13530.857298
0.021600  5227.261617 -9673.607111 -12691.187892     7.008488 12821.457710  9838.831253
0.022800 -5458.204487 -14089.477553 -5124.132147 10267.740817 12749.312688  -649.257577
0.024000 -13040.832714 -9142.934274  5911.247400 13466.884355  4408.192712 -9935.354914
0.025200 -11853.143890   821.043279 12199.298459  8400.683141 -5448.061557 -12305.934688
0.026400 -4235.925195  8711.088290 11031.852367    42.261447 -10960.300682 -8582.342996
0.027600  4227.706640 11761.911249  5008.436828 -7665.889417 -11091.152520 -1175.792524
0.028800 10351.099411  9433.602705 -3213.076228 -12101.892821 -6046.089485  7511.706903
0.030000 11836.581117  1634.292517 -10704.080337 -10021.060283  3209.852708 12681.592090
0.031200  6244.358817 -8093.035846 -12157.080791 -1031.990896 11148.048822  9438.176517
0.032400 -3822.560523 -12270.965357 -5446.012234  8093.325708 11309.385415   458.521008
0.033600 -10500.202933 -8296.601396  3688.770087 10831.826359  4897.899702 -6797.067317
0.034800 -10154.489822 -1187.477511  9052.922256  8191.560163 -2396.464472 -9943.177593
0.036000 -5642.259091  5440.033714 10176.415676  2578.644113 -8438.444933 -9235.089295
0.037200  1446.325380 10468.991018  6628.687454 -5479.464055 -10979.921383 -2896.111842
0.038400  8985.578860  9756.467634 -1788.205450 -11126.605435 -6445.700907  6255.462294
0.039600 10971.414430  2018.558287 -9240.774071 -8908.866815  2367.582396 10524.409743
0.040800  5551.893751 -6138.324705 -9963.508906 -1525.281394  8419.338845  7871.837173
0.042000 -2041.643209 -9222.660979 -5257.833607  4962.280239  9126.321533  2201.696352
0.043200 -7330.960459 -7854.653892  1081.726726  8590.212819  5787.861659 -3988.315953
0.044400 -9125.474644 -3188.094232  6877.665045  8579.630103  -404.542444 -8925.115105
0.045600 -6447.938633  3961.481012  9610.722008  3483.267591 -7149.567526 -9037.690020
0.046800   510.878673  9478.983054  6462.058446 -4550.929342 -9734.039756 -2888.119062
0.048000  7436.691859  8545.739373  -995.077866 -9270.329061 -5829.467843  4770.081435
0.049200  9085.894644  2187.173489 -6978.525883 -7459.852955   951.504035  8084.086699
0.050400  5364.900107 -3819.743415 -8176.819499 -2584.259160  5886.681396  7177.056042
0.051600    12.141874 -7184.227975 -5913.820299  2578.006188  8169.770055  3800.553636
0.052800 -5379.976158 -8065.213007  -849.204043  7555.465394  6816.883234 -2458.526278
0.054000 -8954.988056 -4302.473100  5947.758376  8794.700014   509.729911 -8391.220567
0.055200 -6701.124959  3302.645525  9056.802617  3510.100803 -6305.546689 -8157.865837
0.056400   120.734671  8058.398910  5843.925676 -3427.968150 -8143.713903 -2875.850851
0.057600  5577.619957  7091.169439   167.753034 -6814.057444 -5561.979686  2353.598458
0.058800  7332.447050  3453.843306 -4489.732243 -7016.774233 -1197.906213  6146.630910
0.060000  6249.144627 -1338.451433 -7531.598681 -4464.562984  4248.288813  7755.092041
0.061200  1711.259159 -6472.802491 -6815.301948  1272.697234  8015.519153  4813.929019
0.062400 -4606.988697 -8273.037471 -1464.329714  7058.159717  6666.530630 -1892.481723
0.063600 -7999.957350 -4221.407151  4799.738865  7808.746182  1016.414551 -6858.888273
0.064800 -5989.471871  2104.345468  7287.345616  3572.310567 -4302.462889 -6872.256187
0.066000 -1083.281360  5919.688608  5539.437253 -1480.468217 -6440.216599 -3661.940962
0.067200  3299.708374  6353.207380  1913.206862 -4966.555249 -5963.562081   392.354211
0.068400  6392.106344  4587.547194 -2855.683890 -6908.584816 -2561.876119  5099.788599
0.069600  6654.898753  -158.050922 -6997.636413 -5070.318617  3332.401483  7554.088414
0.070800  2261.802123 -5832.116374 -6561.976689   923.077673  7181.238381  4370.657170
0.072000 -3853.386623 -7060.194683 -1415.707663  5710.967051  5536.999442 -1275.493113
0.073200 -6218.147461 -3561.805811  3217.073137  5968.575616  1529.975839 -4634.522044
0.074400 -5086.561716   527.031203  5345.498397  3782.320553 -2176.522732 -5620.258549
0.075600 -2448.691371  3849.567704  5672.720391   451.351326 -5514.247490 -4703.146174
0.076800  1968.522921  6284.612785  2906.939706 -4185.716985 -6247.267456  -422.645490
0.078000  6111.035510  4921.095845 -2508.834192 -6671.708100 -2466.375836  4696.194676
0.079200  5995.340343  -130.903694 -6109.547185 -4409.152787  2821.014691  6305.142129
0.080400  1850.494147 -4605.320436 -5191.122822   383.331079  5314.279497  3817.490295
0.081600 -2265.949305 -5518.886028 -1971.006451  3850.015194  4836.078357   105.073704
0.082800 -4578.722269 -3869.830750  1398.038227  5107.616565  2696.436267 -3096.137818
0.084000 -5195.367929  -967.086125  4487.739004  4577.767615  -928.810378 -5517.310583
0.085200 -3400.492277  3139.691239  5935.278231  1231.322268 -5121.779740 -5041.408262
0.086400  1374.035593  6064.844843  3182.524516 -3697.132773 -5962.047805  -704.767107
0.087600  5411.862902  4614.720774 -1931.572515 -5826.812841 -2381.277214  3766.471490
0.088800  5055.459093   262.206351 -4603.444466 -3805.336767  1473.825109  4816.802184
0.090000  2320.292393 -2810.113783 -4457.565660  -895.842980  3616.266909  3927.594205
0.091200  -380.196026 -4399.274433 -3226.206408  2006.262438  4945.423455  1832.230977
0.092400 -3613.486601 -4744.075030   -37.065365  4935.751249  3900.293168 -2209.858728
0.093600 -5714.012551 -1911.969443  4354.665480  5024.117976  -606.230008 -5359.129674
0.094800 -3436.188302  2725.322937  5481.807576  1328.744963 -4447.175242 -4464.270502
0.096000  1057.966976  4963.768605  2683.743144 -2618.504920 -4591.442198 -1061.459595
0.097200  3673.698474  3864.904151  -635.340871 -4182.984735 -2618.804511  1898.912478
0.098400  4054.213740  1496.488858 -2858.398310 -3905.578070  -200.800913  3863.196750
0.099600  3223.877311 -1362.585123 -4304.013571 -2070.016559  2735.578398  4368.573822
0.100800   616.566676 -4123.315387 -3792.877790  1415.884026  4904.435010  2194.644304
0.102000 -3280.239739 -4641.093691  -198.748112  4515.958626  3570.758599 -1907.457310
0.103200 -4947.404736 -1675.211545  3630.964733  4215.935628  -438.210629 -4324.059921
0.104400 -2760.164564  2051.863380  4168.208117  1177.295992 -3092.687063 -3452.042780
0.105600   322.715355  3495.753388  2408.842035 -1375.131191 -3414.167085 -1509.138549
0.106800  2153.471491  3382.754283   581.922770 -3053.372384 -3055.219293   705.075391
0.108000  3689.194994  2237.378060 -2029.594915 -4021.813698 -1042.066350  3489.164674
