##TITLE=1D-13C-1-5-5-328-110-"no"-"yes"
##JCAMP-DX=5.01 $$ Magritek Spinsolve SPA1903 2.0.4.4423
##DATA TYPE=NMR FID
##DATA CLASS=NTUPLES
##ORIGIN=SPA1903 at Magritek
##OWNER=Copyright (C) 2025 by Magritek
##LONGDATE=2025/02/12 14:33:15.020
##.OBSERVE FREQUENCY=15.4861775226891
##.OBSERVE NUCLEUS=^13C
##.DELAY=( 20,  5000)
##.ACQUISITION MODE=SIMULTANEOUS
##.FIELD= 1.5
##.AVERAGES= 1
##.DIGITISER RES=16
##.SHIFT REFERENCE=(INTERNAL, Water, 4096, 0)
##$REFERENCE_POINT= 796.520    $$ Referencing label
$$      Distance of the zero axis position (in Hz) from the last data
$$      point (right edge); positive values -> right edge is below 0 Hz
##SPECTROMETER/DATA SYSTEM=Magritek
##SAMPLE DESCRIPTION=solvent=Water
$$ Bruker specific parameters
$$ --------------------------
##$AUNMP=   <proc_1d_nosref>
##$INSTRUM= <Magritek>
##$SI=      8192
##$TD=      8192
##$TDeff=   8192
##$SW=      322.868600
##$BF1=     15.4861775226891
##$SF=      15.4844740431616
##$LB=      0
##$PHC0=    217.1
##$PHC1=    0.0
##$REVERSE= yes
$$ End of Bruker specific parameters
$$ ---------------------------------
##NTUPLES=NMR FID
##VAR_NAME=        TIME,            FID/REAL,            FID/IMAG, PAGE NUMBER
##SYMBOL=             X,                   R,                   I,           N
##VAR_TYPE= INDEPENDENT,           DEPENDENT,           DEPENDENT,        PAGE
##VAR_FORM=        AFFN,                AFFN,                AFFN,        AFFN
##VAR_DIM=         8192,                8192,                8192,           2
##UNITS=        SECONDS,     ARBITRARY UNITS,     ARBITRARY UNITS,            
##FIRST=              0,                   0,                   0,           1
##LAST=    1.638199e+00,  0.0980550547623873,  0.0717674376759264,           2
##MIN=                0,   -57.9181112581463,   -57.6610306027151,           1
##MAX=     1.638199e+00,    56.7096262312729,    59.0130948660705,           2
##FACTOR=             1,                   1,                   1,           1
##PAGE=N=1
##DATA TABLE=(X++(R..R)), XYDATA
0.000000     0.000000    23.363440   -40.518202   -56.795997    -1.758612    54.519578
0.001200    41.471939   -21.139579   -57.918111   -21.466845    42.692811    52.550773
0.002400     1.363963   -50.869126   -39.297457    16.253190    51.695730    25.729116
0.003600   -32.399102   -53.903208    -9.464971    45.507640    44.263059   -11.263266
0.004800   -53.047384   -30.733260    30.476108    55.412125    13.737591   -43.541954
0.006000   -50.322357     6.513599    56.709626    37.629784   -26.819864   -57.094702
0.007200   -12.869335    45.661404    50.259834    -8.227165   -57.392628   -34.900209
0.008400    29.224696    55.842915    13.013417   -45.829895   -48.855296     8.771570
0.009600    55.179885    31.820095   -28.097425   -56.731292   -14.699623    42.494841
0.010800    43.777178    -4.085238   -48.348454   -36.898433    21.203234    52.810706
0.012000    19.834601   -35.560504   -49.546246    -5.566360    48.125326    41.326701
0.013200   -16.711555   -55.810351   -25.103962    35.792921    54.865120     5.705142
0.014400   -50.004361   -43.219311    16.071129    54.974235    26.869502   -36.002981
0.015600   -52.866956    -3.380547    52.787578    43.372074   -17.117310   -54.310540
0.016800   -25.221620    35.434894    51.846254     4.892919   -45.895696   -40.727172
0.018000    15.137664    49.702246    27.758342   -27.146177   -48.597864    -9.597547
0.019200    40.775295    42.225595   -10.360392   -49.106604   -32.516028    24.399595
0.020400    52.314532    15.549060   -40.043419   -46.148721     5.448793    51.862062
0.021600    34.970775   -25.222305   -54.303932   -19.752936    40.042527    51.498579
0.022800    -4.878653   -54.027494   -35.156859    26.036153    54.952730    17.253153
0.024000   -44.099449   -48.662494     5.952987    51.343300    36.096576   -21.444451
0.025200   -52.268441   -15.873289    37.056903    44.184820    -2.964530   -46.857500
0.026400   -36.112977    15.825382    48.358925    18.010310   -34.477430   -49.854529
0.027600    -3.669223    44.448317    36.324704   -15.212346   -50.519487   -26.705274
0.028800    29.577908    50.528474     7.998547   -46.975404   -43.800996    12.230859
0.030000    49.912400    27.650331   -30.172793   -51.370967    -8.134892    45.839963
0.031200    43.386948   -13.438740   -52.180778   -27.141732    29.651778    50.374401
0.032400     7.742975   -43.607626   -41.010938    11.915180    50.131726    27.566846
0.033600   -27.524958   -47.988184   -10.589330    40.349076    39.391570    -8.801339
0.034800   -46.305450   -29.764357    22.370371    47.399739    17.704035   -34.636484
0.036000   -44.754685     0.735502    46.993870    32.303564   -20.855085   -49.674101
0.037200   -21.872947    34.289990    47.365175     2.982180   -47.638580   -38.525890
0.038400    22.699061    54.922639    19.283197   -36.062935   -46.783982     1.983593
0.039600    48.293375    37.439633   -19.943079   -52.349378   -19.717820    33.056148
0.040800    44.255856     1.738504   -43.829083   -35.698252    16.496670    45.792014
0.042000    18.596864   -30.096192   -42.485171    -4.368030    41.177771    36.760592
0.043200   -11.539420   -44.018485   -25.119510    26.487535    48.389377    11.661215
0.044400   -41.682516   -43.882176     7.662050    49.185947    29.162990   -27.400783
0.045600   -48.315189    -9.327548    41.473522    42.433241    -9.019783   -48.418273
0.046800   -28.496036    25.534489    49.448273     9.800532   -41.098199   -41.718666
0.048000    10.513607    48.693953    27.852285   -25.573313   -45.612501   -10.452396
0.049200    35.758339    37.411911    -3.268857   -41.279459   -27.380395    22.720227
0.050400    44.886067    16.208744   -33.887775   -42.528992    -1.352687    41.089573
0.051600    35.928915   -16.671292   -46.727242   -23.078984    31.523420    47.741566
0.052800     3.702259   -46.319551   -37.098420    16.933393    48.005164    22.618012
0.054000   -33.565752   -46.993428    -2.158357    44.562927    36.224065   -17.683042
0.055200   -47.764469   -19.317044    31.044876    46.088470     0.989564   -40.800438
0.056400   -32.702062    13.571636    43.521561    20.083090   -27.702854   -44.363121
0.057600    -4.166966    38.114137    36.235926   -10.505839   -44.988146   -25.646980
0.058800    23.100837    43.511412    12.109440   -35.453749   -40.039251     5.326427
0.060000    42.797522    27.337948   -21.343983   -47.426439   -14.684342    37.605571
0.061200    41.812727    -5.139444   -46.526440   -32.135427    23.702691    50.804973
0.062400    14.610715   -37.240849   -42.929120     4.283362    43.342130    27.877311
0.063600   -20.795697   -43.688427   -12.421545    34.939543    40.441848    -3.277062
0.064800   -40.347156   -28.895968    17.758883    41.853925    16.760728   -27.613042
0.066000   -41.061599    -4.545834    36.608532    32.823385   -11.676577   -43.441442
0.067200   -21.701875    26.200074    42.319097     6.597617   -39.992228   -36.694484
0.068400    13.407514    45.984514    22.564978   -28.324307   -46.129926    -6.893280
0.069600    41.558321    38.432106   -12.544152   -46.705494   -22.435742    28.665508
0.070800    45.260108     5.099858   -41.023061   -35.845435    12.465222    42.636151
0.072000    23.301459   -24.210639   -43.298031    -7.955429    34.626747    34.413417
0.073200    -6.358357   -41.326004   -23.833495    19.815647    42.310657    15.528254
0.074400   -33.514060   -38.996812     1.589398    41.457674    31.302830   -19.732138
0.075600   -46.839538   -15.603583    34.618197    42.736794     0.132049   -42.503801
0.076800   -32.857206    18.549160    47.856319    17.706455   -33.178828   -42.370287
0.078000     1.117103    41.210727    29.103636   -17.969246   -42.619269   -14.202931
0.079200    30.843664    38.580277    -1.883986   -40.065198   -33.331293    14.763814
0.080400    42.421178    15.068263   -26.341992   -37.014923    -3.251195    34.923412
0.081600    32.712909   -10.838441   -41.923536   -21.334493    24.378389    41.467234
0.082800     7.224017   -35.693290   -36.249129     8.628267    43.104972    25.070182
0.084000   -24.570163   -43.723548    -6.874185    36.439174    36.051994    -8.749203
0.085200   -42.576023   -23.099426    24.462315    43.043635     6.988075   -35.796365
0.086400   -35.886539     8.082433    42.673805    23.146776   -23.407068   -39.945123
0.087600    -9.258720    33.490649    34.806813    -4.104667   -37.316715   -25.461119
0.088800    17.387371    38.097865    11.638119   -30.766813   -38.420722    -0.141750
0.090000    37.144746    29.261164   -14.151899   -40.775810   -15.484979    29.882330
0.091200    40.039824     1.775644   -38.330662   -31.214134    14.999579    42.828935
0.092400    17.342643   -28.089036   -40.419949    -2.507381    38.573590    30.752760
0.093600   -14.764551   -43.642504   -18.008951    29.872591    39.639316     1.917202
0.094800   -33.628057   -28.087225    10.824032    38.839424    15.858759   -25.719744
0.096000   -37.685646    -4.439167    31.691897    30.029481    -8.114357   -38.674297
0.097200   -21.685882    23.700431    39.272369     9.996973   -31.104394   -35.181163
0.098400     6.617310    39.222841    24.500939   -18.464503   -40.984564   -10.814986
0.099600    33.894258    37.336462    -5.874268   -42.817754   -25.683539    21.435570
0.100800    42.522355    10.180030   -36.045776   -35.989258     5.547700    39.127434
0.102000    25.272596   -18.561798   -39.855519   -11.002989    31.667589    35.231717
0.103200    -4.492456   -35.318068   -23.867995    16.151660    37.214356    14.566409
0.104400   -26.757840   -34.789652    -1.003206    32.847073    28.935241   -11.782202
0.105600   -37.907978   -16.781529    24.351353    35.772244     2.711060   -32.850171
0.106800   -29.221435    13.155016    41.718946    19.265819   -27.087642   -38.449473
0.108000    -1.976617    35.815189    29.489746   -13.517898   -39.657384   -19.031207
