##TITLE=1D-13C-1-2-5-328-110-"no"-"yes"
##JCAMP-DX=5.01 $$ Magritek Spinsolve SPA1903 2.0.4.4423
##DATA TYPE=NMR FID
##DATA CLASS=NTUPLES
##ORIGIN=SPA1903 at Magritek
##OWNER=Copyright (C) 2025 by Magritek
##LONGDATE=2025/03/17 12:00:47.788
##.OBSERVE FREQUENCY=15.4860999900848
##.OBSERVE NUCLEUS=^13C
##.DELAY=( 20,  2000)
##.ACQUISITION MODE=SIMULTANEOUS
##.FIELD= 1.5
##.AVERAGES= 1
##.DIGITISER RES=16
##.SHIFT REFERENCE=(INTERNAL, Water, 4096, 0)
##$REFERENCE_POINT= 796.529    $$ Referencing label
$$      Distance of the zero axis position (in Hz) from the last data
$$      point (right edge); positive values -> right edge is below 0 Hz
##SPECTROMETER/DATA SYSTEM=Magritek
##SAMPLE DESCRIPTION=solvent=Water
$$ Bruker specific parameters
$$ --------------------------
##$AUNMP=   <proc_1d_nosref>
##$INSTRUM= <Magritek>
##$SI=      8192
##$TD=      8192
##$TDeff=   8192
##$SW=      322.870200
##$BF1=     15.4860999900848
##$SF=      15.4843965190859
##$LB=      0
##$PHC0=    216.6
##$PHC1=    0.0
##$REVERSE= yes
$$ End of Bruker specific parameters
$$ ---------------------------------
##NTUPLES=NMR FID
##VAR_NAME=        TIME,            FID/REAL,            FID/IMAG, PAGE NUMBER
##SYMBOL=             X,                   R,                   I,           N
##VAR_TYPE= INDEPENDENT,           DEPENDENT,           DEPENDENT,        PAGE
##VAR_FORM=        AFFN,                AFFN,                AFFN,        AFFN
##VAR_DIM=         8192,                8192,                8192,           2
##UNITS=        SECONDS,     ARBITRARY UNITS,     ARBITRARY UNITS,            
##FIRST=              0,                   0,                   0,           1
##LAST=    1.638199e+00,  -0.507837518773891,  -0.166501346697406,           2
##MIN=                0,   -1783.98218470767,   -1758.43107113382,           1
##MAX=     1.638199e+00,     1730.7017728437,    1859.62002607278,           2
##FACTOR=             1,                   1,                   1,           1
##PAGE=N=1
##DATA TABLE=(X++(R..R)), XYDATA
0.000000     0.000000   755.411853 -1345.145580 -1736.411824    59.070069  1722.143476
0.001200  1244.443322  -759.079625 -1783.982185  -600.646329  1274.170730  1559.142992
0.002400   -39.900794 -1547.217673 -1163.067643   596.178323  1611.130059   681.230696
0.003600 -1056.901067 -1517.577792  -150.857777  1396.568150  1265.633894  -398.947407
0.004800 -1607.793454  -879.589350   945.867397  1641.392324   322.284353 -1428.393162
0.006000 -1436.510075   341.030728  1729.649233   977.472922 -1002.469180 -1754.772090
0.007200  -316.286897  1528.206600  1466.829098  -421.070517 -1777.816937  -926.466727
0.008400  1066.003740  1718.502331   236.590705 -1512.440295 -1370.703182   447.408465
0.009600  1672.882554   834.895654  -995.260245 -1579.539657  -243.821967  1351.566262
0.010800  1284.864245  -313.325281 -1513.870553  -882.955955   803.423001  1513.715273
0.012000   399.470591 -1200.041005 -1358.387185   128.466736  1476.977400  1051.732644
0.013200  -678.025546 -1608.756125  -570.009980  1207.377744  1524.044259   -51.185803
0.014400 -1585.104863 -1166.608707   716.230189  1730.701773   579.171629 -1301.184366
0.015600 -1561.030753   136.475155  1654.115135  1101.654889  -810.060364 -1688.857933
0.016800  -471.073060  1290.282749  1436.195047  -168.726021 -1534.717702  -993.360786
0.018000   729.938825  1522.499064   470.919521 -1112.327592 -1335.488937    38.105303
0.019200  1358.240153  1039.391237  -525.802381 -1468.244259  -649.342849   961.544884
0.020400  1424.540655   153.489400 -1340.190475 -1223.012150   414.247904  1570.359601
0.021600   795.554318  -988.080055 -1574.330433  -202.812203  1448.534767  1303.519461
0.022800  -466.837061 -1673.762266  -787.953026  1085.712274  1586.891997   119.901211
0.024000 -1479.821779 -1228.864019   533.692673  1606.657584   694.442484 -1046.356142
0.025200 -1468.092258   -97.728753  1356.920597  1144.583635  -450.414794 -1462.772130
0.026400  -696.325037   887.802549  1387.215480   219.220849 -1209.424169 -1180.995932
0.027600   273.245908  1398.440497   839.430499  -747.967525 -1447.914598  -389.342818
0.028800  1170.780884  1318.220236  -163.657082 -1479.221390  -978.343703   747.874444
0.030000  1575.029497   443.224888 -1259.230586 -1406.577449   197.947876  1567.686256
0.031200   979.126404  -837.885929 -1599.726789  -366.082163  1303.391748  1330.444253
0.032400  -274.356822 -1514.042604  -868.715995   819.990476  1469.131369   318.490345
0.033600 -1183.832027 -1218.986335   208.029318  1346.248406   854.766874  -653.975358
0.034800 -1363.837530  -438.392123  1004.904424  1240.062186   -16.997175 -1268.623172
0.036000 -1000.646382   495.807416  1418.452041   609.421957  -973.753587 -1390.774677
0.037200   -84.765758  1362.498834  1129.208621  -518.396322 -1541.954918  -645.600161
0.038400  1072.643487  1453.962952    24.516065 -1432.655637 -1094.824810   610.761974
0.039600  1536.969539   552.742225 -1091.893875 -1356.825823    46.282579  1360.575674
0.040800   982.797297  -571.681730 -1391.812302  -519.847716   961.608018  1253.587776
0.042000    27.118769 -1202.185601  -977.267047   405.451468  1301.809298   627.792333
0.043200  -806.931127 -1273.737858  -200.118507  1134.598526  1102.209786  -282.157598
0.044400 -1345.576855  -769.189080   774.236159  1391.753748   289.967380 -1197.267961
0.045600 -1210.527824   288.018605  1447.980290   809.362077  -843.222242 -1454.322851
0.046800  -247.754894  1265.965622  1193.295841  -361.039318 -1446.437867  -726.197910
0.048000   870.860586  1363.533683   173.909694 -1210.368534 -1085.565762   348.093794
0.049200  1316.899894   670.971568  -761.935075 -1249.201914  -237.978986  1038.670214
0.050400  1061.053410  -192.285892 -1203.602634  -771.034500   594.367183  1263.916075
0.051600   413.871962  -958.441448 -1181.902499    44.532006  1244.802014   938.940124
0.052800  -554.567747 -1387.279936  -502.841308  1030.050863  1300.254049   -64.146157
0.054000 -1363.061512  -969.491559   649.312776  1450.253519   433.638318 -1110.451584
0.055200 -1257.164183   153.865902  1346.301977   867.989298  -659.784567 -1340.103876
0.056400  -366.018523  1017.902683  1139.298475  -112.075708 -1202.668807  -819.055324
0.057600   530.473651  1225.264442   451.408124  -859.166913 -1130.816780   -43.821924
0.058800  1103.860032   932.655120  -375.859964 -1248.752207  -604.624381   796.165853
0.060000  1248.414228   164.859902 -1143.517726 -1062.650883   350.407769  1353.031078
0.061200   679.399533  -855.915330 -1339.098417  -147.498522  1228.145005  1075.912987
0.062400  -418.873205 -1392.866708  -622.393744   907.929567  1291.189550    82.745746
0.063600 -1208.866892  -994.237392   431.376575  1296.636266   561.054767  -836.659379
0.064800 -1185.765552   -99.557239  1075.938164   936.908254  -323.828404 -1180.578996
0.066000  -615.954800   681.623878  1155.878058   241.195956  -966.385091 -1021.666927
0.067200   166.039955  1167.420177   757.398586  -596.801463 -1254.247421  -370.098942
0.068400   996.858603  1151.476472  -130.140537 -1278.022785  -840.586145   656.410064
0.069600  1350.200116   353.299204 -1087.653784 -1169.371336   209.806605  1312.982081
0.070800   771.177068  -711.918695 -1291.174750  -264.891206  1061.424454  1055.313678
0.072000  -233.663989 -1200.612325  -688.446396   636.863054  1164.467069   285.975403
0.073200  -912.191687  -996.132551   105.934792  1075.312231   754.997848  -472.784539
0.074400 -1137.458168  -435.017624   806.786926  1091.059858    40.457553 -1081.539715
0.075600  -894.926859   410.387706  1238.448626   538.652636  -848.913258 -1198.350262
0.076800   -53.637689  1172.705132   943.880719  -464.632314 -1300.920959  -512.017214
0.078000   909.210073  1190.484826   -12.391121 -1188.028254  -876.355653   504.559306
0.079200  1237.446913   439.278711  -875.905168 -1095.890354    21.170638  1085.362034
0.080400   814.048000  -429.128323 -1129.028072  -460.373861   746.510957  1044.576332
0.081600    87.354466  -967.841344  -855.880416   284.789224  1089.657889   584.423663
0.082800  -640.375157 -1101.191133  -217.658033   957.130443   984.255608  -206.495966
0.084000 -1165.021765  -690.138861   657.769239  1214.280306   257.467449 -1032.330766
0.085200 -1043.752882   245.473844  1239.231212   680.591427  -732.177999 -1218.277215
0.086400  -188.115820  1063.418092   975.995524  -309.044158 -1181.335528  -596.915857
0.087600   701.451284  1108.964815   163.918760  -946.446999  -888.685509   228.193240
0.088800  1045.803293   609.720178  -546.782431 -1039.149116  -279.605898   813.047121
0.090000   937.489147   -68.506039 -1012.570879  -737.234722   443.807943  1112.263387
0.091200   424.232799  -811.466162 -1066.704379     5.287534  1097.412808   832.501246
0.092400  -479.229028 -1211.382094  -433.597846   896.407845  1105.895970   -64.807393
0.093600 -1149.535292  -799.586685   543.645268  1192.845957   354.683353  -899.113245
0.094800 -1027.405630   104.908188  1077.163554   717.184402  -496.615885 -1079.599535
0.096000  -345.885462   784.650433   946.863411   -23.187923  -948.449635  -734.812726
0.097200   363.489602  1024.414605   445.904133  -669.121796  -987.397436  -110.072732
0.098400   922.093791   842.760682  -269.305561 -1077.510060  -568.553972   659.240975
0.099600  1089.204125   167.681737  -979.779135  -922.115248   289.444421  1150.410339
0.100800   579.766071  -723.915280 -1128.092605  -121.698007  1030.859691   890.030679
0.102000  -352.369865 -1141.057424  -511.518882   735.564930  1048.313858    77.201959
0.103200  -966.558344  -800.221867   329.695349  1026.348651   475.093133  -628.357133
0.104400  -954.654111  -137.945180   831.627228   793.685814  -192.542051  -951.979102
0.105600  -572.413229   502.812375   981.856734   271.444684  -790.318274  -911.710521
0.106800    89.782882  1005.384450   690.346966  -493.565304 -1092.589384  -329.123365
0.108000   862.784367   984.009968  -123.911334 -1085.314396  -690.692845   571.243991
