##TITLE=1D-13C-1-2-5-328-110-"no"-"yes"
##JCAMP-DX=5.01 $$ Magritek Spinsolve SPA1903 2.0.4.4423
##DATA TYPE=NMR FID
##DATA CLASS=NTUPLES
##ORIGIN=SPA1903 at Magritek
##OWNER=Copyright (C) 2025 by Magritek
##LONGDATE=2025/03/17 12:00:54.634
##.OBSERVE FREQUENCY=15.4860999900848
##.OBSERVE NUCLEUS=^13C
##.DELAY=( 20,  2000)
##.ACQUISITION MODE=SIMULTANEOUS
##.FIELD= 1.5
##.AVERAGES= 1
##.DIGITISER RES=16
##.SHIFT REFERENCE=(INTERNAL, Water, 4096, 0)
##$REFERENCE_POINT= 796.529    $$ Referencing label
$$      Distance of the zero axis position (in Hz) from the last data
$$      point (right edge); positive values -> right edge is below 0 Hz
##SPECTROMETER/DATA SYSTEM=Magritek
##SAMPLE DESCRIPTION=solvent=Water
$$ Bruker specific parameters
$$ --------------------------
##$AUNMP=   <proc_1d_nosref>
##$INSTRUM= <Magritek>
##$SI=      8192
##$TD=      8192
##$TDeff=   8192
##$SW=      322.870200
##$BF1=     15.4860999900848
##$SF=      15.4843965190859
##$LB=      0
##$PHC0=    216.6
##$PHC1=    0.0
##$REVERSE= yes
$$ End of Bruker specific parameters
$$ ---------------------------------
##NTUPLES=NMR FID
##VAR_NAME=        TIME,            FID/REAL,            FID/IMAG, PAGE NUMBER
##SYMBOL=             X,                   R,                   I,           N
##VAR_TYPE= INDEPENDENT,           DEPENDENT,           DEPENDENT,        PAGE
##VAR_FORM=        AFFN,                AFFN,                AFFN,        AFFN
##VAR_DIM=         8192,                8192,                8192,           2
##UNITS=        SECONDS,     ARBITRARY UNITS,     ARBITRARY UNITS,            
##FIRST=              0,                   0,                   0,           1
##LAST=    1.638199e+00,  -0.470188015252683,  -0.252452178027935,           2
##MIN=                0,   -1698.15095827384,   -1672.86886261094,           1
##MAX=     1.638199e+00,     1648.9743604911,     1766.0959828604,           2
##FACTOR=             1,                   1,                   1,           1
##PAGE=N=1
##DATA TABLE=(X++(R..R)), XYDATA
0.000000     0.000000   714.282037 -1285.963588 -1650.995869    67.889635  1643.359946
0.001200  1178.219089  -729.815942 -1695.644338  -568.821104  1209.882844  1475.591494
0.002400   -47.809224 -1477.746502 -1098.971810   577.306764  1528.775325   646.049002
0.003600 -1005.181025 -1437.980113  -149.716103  1328.464725  1209.439574  -381.910267
0.004800 -1533.375861  -835.123576   906.276982  1563.075682   303.840712 -1361.465781
0.006000 -1366.845217   331.413799  1648.974360   928.176543  -965.590931 -1675.098353
0.007200  -300.873207  1463.183526  1402.775954  -403.713933 -1698.150958  -872.343392
0.008400  1024.084126  1635.119900   219.290526 -1444.575705 -1302.113695   423.123801
0.009600  1590.345401   795.434100  -937.613466 -1495.597723  -233.024571  1285.594987
0.010800  1221.252106  -303.076736 -1441.954261  -835.969243   761.700789  1442.173691
0.012000   380.467376 -1142.149471 -1289.183496   119.393108  1406.238116  1002.318020
0.013200  -642.475976 -1532.603924  -543.409656  1146.746558  1446.629006   -54.792423
0.014400 -1516.429822 -1104.670621   692.680994  1644.276717   550.189118 -1246.976392
0.015600 -1490.422740   131.115404  1576.493625  1044.364136  -768.637262 -1601.711994
0.016800  -443.411694  1239.889068  1364.615607  -174.554596 -1458.200442  -943.362771
0.018000   695.462494  1445.407101   439.847666 -1064.458333 -1278.602705    33.750085
0.019200  1296.789682   998.341508  -494.862630 -1395.721233  -615.799101   919.771481
0.020400  1363.875574   152.815108 -1277.931092 -1161.577455   395.331514  1500.667238
0.021600   761.814687  -946.174254 -1505.921066  -186.203233  1384.386662  1241.666940
0.022800  -456.769170 -1592.727584  -743.186778  1029.674099  1514.396680   107.653688
0.024000 -1415.633974 -1173.186664   506.977498  1530.231234   648.415405 -1001.497056
0.025200 -1395.895147   -87.003382  1296.736788  1082.925353  -431.232057 -1389.349359
0.026400  -662.204658   845.340422  1326.260328   205.853845 -1150.636904 -1118.216817
0.027600   257.607421  1332.510152   797.982992  -711.785402 -1378.015952  -367.803391
0.028800  1113.630939  1255.965996  -150.315839 -1406.366156  -937.980864   714.840908
0.030000  1503.101477   422.899395 -1204.910405 -1345.884765   194.313771  1503.020393
0.031200   932.061942  -801.610870 -1527.453792  -346.750708  1242.644089  1271.320317
0.032400  -266.598079 -1443.738419  -826.397896   779.906021  1398.066516   299.978664
0.033600 -1128.961010 -1150.136409   206.739351  1279.859579   808.173185  -618.905210
0.034800 -1289.800269  -408.756272   961.602817  1184.835850   -17.825161 -1214.599748
0.036000  -952.240581   478.209811  1354.605655   585.759808  -927.645366 -1330.475339
0.037200   -79.125844  1297.529781  1076.560786  -490.276749 -1469.899839  -616.218971
0.038400  1021.481778  1389.029734    14.457416 -1374.973657 -1037.796041   579.622533
0.039600  1459.766135   523.164512 -1039.734084 -1290.438874    47.664822  1293.450500
0.040800   943.668944  -544.045761 -1329.787642  -489.008491   918.645167  1191.193655
0.042000    37.181780 -1137.144517  -938.918596   381.083304  1237.329552   599.392338
0.043200  -767.868721 -1219.923316  -191.450895  1081.277903  1053.607050  -264.518831
0.044400 -1285.810354  -740.433681   741.666826  1333.171265   278.060198 -1142.981184
0.045600 -1154.219634   278.274316  1380.533526   772.398205  -801.835959 -1378.936473
0.046800  -227.274799  1210.922275  1133.966898  -343.419272 -1380.828948  -692.182873
0.048000   837.728665  1306.541831   168.069410 -1149.753581 -1036.115589   329.028618
0.049200  1260.051059   642.959992  -723.003552 -1192.849160  -231.542256   996.303112
0.050400  1011.402574  -181.277609 -1147.879270  -742.891621   565.316087  1201.602296
0.051600   390.305028  -912.915563 -1134.059706    44.656519  1198.425753   893.809742
0.052800  -534.153682 -1331.045910  -479.042947   990.163943  1241.681859   -58.886030
0.054000 -1302.923247  -918.821978   614.521549  1378.632667   415.674246 -1059.649892
0.055200 -1199.655159   145.780047  1277.701272   821.616140  -633.381197 -1280.414793
0.056400  -349.835533   969.505323  1083.421027  -110.165087 -1143.916436  -785.247320
0.057600   504.527804  1163.885753   427.813391  -815.540432 -1083.754355   -49.081696
0.058800  1049.082776   891.282240  -354.994592 -1191.487208  -579.855548   755.571062
0.060000  1194.845728   164.415988 -1093.189858 -1014.810056   334.972296  1294.785916
0.061200   648.471853  -819.705143 -1276.234955  -145.413662  1171.651570  1028.860543
0.062400  -400.215612 -1329.618332  -601.260294   864.016342  1237.460013    77.890026
0.063600 -1153.821660  -947.720457   408.612091  1235.654307   537.461919  -794.913178
0.064800 -1130.846195   -98.128566  1028.138380   902.203971  -302.576114 -1127.065445
0.066000  -589.721557   646.905043  1108.570037   230.881821  -927.266841  -974.371667
0.067200   156.241072  1116.663417   726.642482  -565.815599 -1197.378942  -357.911570
0.068400   953.479423  1107.487674  -120.409759 -1213.690134  -803.044977   624.307403
0.069600  1285.395927   339.366807 -1038.749817 -1118.870183   197.569401  1253.270595
0.070800   739.514291  -682.876820 -1232.562519  -255.354122  1012.049351  1011.854575
0.072000  -216.055007 -1146.446512  -663.539393   605.556138  1116.039044   277.762715
0.073200  -868.640989  -953.603646    94.110501  1022.892575   721.527452  -448.919314
0.074400 -1089.310246  -421.513074   775.639781  1046.225634    40.686562 -1033.328288
0.075600  -859.110468   386.172255  1179.523214   517.958166  -808.017726 -1152.028425
0.076800   -57.288219  1118.900369   905.705739  -444.963434 -1244.178388  -488.264378
0.078000   870.279787  1140.932326    -5.011994 -1131.555663  -838.694657   477.831727
0.079200  1181.881900   421.095885  -833.078824 -1048.924717    12.579698  1039.441353
0.080400   776.130987  -406.219280 -1076.713843  -448.666849   703.419112   999.107747
0.081600    94.536360  -917.681369  -822.337303   265.378334  1042.918994   562.938812
0.082800  -608.922470 -1057.806169  -218.181370   907.680765   945.995949  -191.800816
0.084000 -1116.191368  -665.943543   625.138312  1159.948676   243.895908  -988.502914
0.085200  -998.909866   239.902928  1183.197568   648.303112  -694.231921 -1165.127559
0.086400  -182.392583  1012.174062   929.997646  -286.887581 -1131.772688  -567.682729
0.087600   668.971979  1054.706275   158.224219  -901.979236  -851.848234   214.638583
0.088800   999.231075   582.003821  -518.226186  -992.749465  -275.619341   774.580970
0.090000   897.726397   -66.024329  -968.080634  -709.381934   421.914299  1066.837104
0.091200   407.487313  -769.440891 -1020.124195    -2.424386  1053.318011   803.259349
0.092400  -452.967469 -1159.325619  -422.316877   853.857202  1059.668340   -58.657148
0.093600 -1097.012718  -763.351527   514.971464  1138.797991   343.902159  -852.140628
0.094800  -974.989259    92.985430  1020.260269   686.297165  -476.068558 -1037.365267
0.096000  -338.568292   746.627140   912.043502   -13.778617  -907.771756  -705.433911
0.097200   343.619504   976.649681   437.020569  -638.964957  -951.723806  -111.044535
0.098400   878.556117   811.948395  -252.512601 -1025.516483  -547.858300   624.837812
0.099600  1045.524166   166.569226  -936.058678  -884.558920   273.472010  1104.211817
0.100800   556.382982  -693.509850 -1080.843096  -119.573694   986.607750   857.760273
0.102000  -331.683025 -1090.264868  -487.337386   703.699728  1001.416725    73.926538
0.103200  -922.097150  -771.726435   302.022615   979.006083   460.761824  -597.924050
0.104400  -916.501280  -137.592973   796.002183   769.539424  -176.049513  -905.615695
0.105600  -556.476024   474.555601   945.096705   268.383755  -752.885665  -868.668201
0.106800    85.671640   963.285714   665.039199  -471.196068 -1045.922376  -325.505597
0.108000   819.055707   949.558114  -113.181393 -1040.980124  -667.630019   543.579963
