##TITLE=1D-13C-1-2-5-328-110-"no"-"yes"
##JCAMP-DX=5.01 $$ Magritek Spinsolve SPA1903 2.0.4.4423
##DATA TYPE=NMR FID
##DATA CLASS=NTUPLES
##ORIGIN=SPA1903 at Magritek
##OWNER=Copyright (C) 2025 by Magritek
##LONGDATE=2025/03/17 11:59:41.551
##.OBSERVE FREQUENCY=15.4860999900848
##.OBSERVE NUCLEUS=^13C
##.DELAY=( 20,  2000)
##.ACQUISITION MODE=SIMULTANEOUS
##.FIELD= 1.5
##.AVERAGES= 1
##.DIGITISER RES=16
##.SHIFT REFERENCE=(INTERNAL, Water, 4096, 0)
##$REFERENCE_POINT= 796.529    $$ Referencing label
$$      Distance of the zero axis position (in Hz) from the last data
$$      point (right edge); positive values -> right edge is below 0 Hz
##SPECTROMETER/DATA SYSTEM=Magritek
##SAMPLE DESCRIPTION=solvent=Water
$$ Bruker specific parameters
$$ --------------------------
##$AUNMP=   <proc_1d_nosref>
##$INSTRUM= <Magritek>
##$SI=      8192
##$TD=      8192
##$TDeff=   8192
##$SW=      322.870200
##$BF1=     15.4860999900848
##$SF=      15.4843965190859
##$LB=      0
##$PHC0=    217.1
##$PHC1=    0.0
##$REVERSE= yes
$$ End of Bruker specific parameters
$$ ---------------------------------
##NTUPLES=NMR FID
##VAR_NAME=        TIME,            FID/REAL,            FID/IMAG, PAGE NUMBER
##SYMBOL=             X,                   R,                   I,           N
##VAR_TYPE= INDEPENDENT,           DEPENDENT,           DEPENDENT,        PAGE
##VAR_FORM=        AFFN,                AFFN,                AFFN,        AFFN
##VAR_DIM=         8192,                8192,                8192,           2
##UNITS=        SECONDS,     ARBITRARY UNITS,     ARBITRARY UNITS,            
##FIRST=              0,                   0,                   0,           1
##LAST=    1.638199e+00,  -0.449287343851113,   0.573274778438591,           2
##MIN=                0,   -3135.84871267076,   -3067.02472942534,           1
##MAX=     1.638199e+00,    3033.99515792586,    3266.87399747816,           2
##FACTOR=             1,                   1,                   1,           1
##PAGE=N=1
##DATA TABLE=(X++(R..R)), XYDATA
0.000000     0.000000  1311.948765 -2382.146838 -3045.128845   132.021732  3033.995158
0.001200  2173.868830 -1342.914650 -3135.848713 -1054.036618  2252.562214  2734.937497
0.002400   -93.112214 -2723.805385 -2027.549890  1079.539779  2843.551388  1177.971082
0.003600 -1879.341703 -2661.060982  -245.547501  2469.431930  2222.217082  -719.882392
0.004800 -2818.530721 -1510.470667  1683.188635  2877.589398   534.361254 -2515.050033
0.006000 -2498.656689   628.119987  3032.925088  1687.566503 -1783.038997 -3067.615289
0.007200  -528.537891  2685.910905  2552.500962  -757.244041 -3117.157605 -1590.526643
0.008400  1899.452700  2993.684972   370.427662 -2655.856303 -2365.359804   808.656375
0.009600  2930.773349  1441.233393 -1762.795471 -2749.042647  -388.373534  2383.635192
0.010800  2231.516505  -591.844325 -2652.522570 -1503.534040  1435.917715  2635.900724
0.012000   661.427428 -2114.991577 -2345.042435   261.630490  2582.693960  1791.888024
0.013200 -1214.176489 -2792.890191  -952.651455  2114.988039  2622.374279  -133.342996
0.014400 -2768.486824 -1988.225644  1289.570633  2999.723926   971.646187 -2293.071351
0.015600 -2701.290659   273.591171  2891.795924  1885.863856 -1439.697146 -2922.485250
0.016800  -775.290333  2281.752981  2477.841261  -359.488123 -2676.958869 -1675.294777
0.018000  1316.601804  2640.995345   766.536874 -1972.302981 -2300.637093   126.853479
0.019200  2372.365688  1768.162330  -960.781688 -2537.411049 -1065.436983  1707.896995
0.020400  2449.953801   217.502383 -2337.458671 -2069.806317   773.491085  2726.865744
0.021600  1328.505932 -1755.904631 -2708.939183  -289.885510  2526.070475  2220.311193
0.022800  -873.804421 -2896.924991 -1301.058428  1914.397552  2728.739918   147.877880
0.024000 -2588.371888 -2091.858982   978.122136  2783.231502  1139.392249 -1860.621687
0.025200 -2525.644819  -103.080710  2391.574680  1930.440736  -845.448494 -2535.099270
0.026400 -1138.582295  1592.608229  2374.785305   309.306111 -2115.570171 -1992.377810
0.027600   537.083778  2426.046103  1387.801103 -1350.323179 -2478.131941  -594.312393
0.028800  2055.484843  2232.159801  -347.066591 -2556.653053 -1630.010825  1346.578638
0.030000  2690.712022   702.214389 -2197.553938 -2386.027529   412.300562  2714.273937
0.031200  1628.942508 -1501.441189 -2746.347082  -552.117859  2295.270358  2258.402581
0.032400  -553.839999 -2627.818601 -1440.733729  1483.346161  2520.498502   464.470041
0.033600 -2084.120785 -2046.446600   442.927045  2338.518686  1395.025353 -1191.667148
0.034800 -2323.532624  -667.420584  1775.363798  2080.633293  -117.717115 -2191.102114
0.036000 -1645.705207   923.505687  2424.227722   974.699312 -1722.946821 -2343.112642
0.037200   -63.813005  2350.481192  1879.812359  -953.216364 -2638.964616 -1031.248774
0.038400  1888.090036  2454.960481   -50.589953 -2491.060520 -1813.500669  1118.358157
0.039600  2629.113281   860.226980 -1934.210153 -2287.736263   170.389954  2358.588032
0.040800  1623.911650 -1060.027222 -2383.447378  -793.455666  1710.435318  2098.803678
0.042000   -35.066484 -2082.709670 -1606.727710   787.943520  2225.773488   983.027779
0.043200 -1445.879150 -2139.783086  -243.198042  1967.132393  1805.740939  -570.355114
0.044400 -2298.408984 -1231.347079  1389.714169  2342.579065   395.562420 -2080.994204
0.045600 -1995.558328   581.081890  2469.455846  1291.652526 -1504.843765 -2441.166259
0.046800  -328.499380  2201.154143  1972.250909  -712.409579 -2480.997459 -1152.839988
0.048000  1565.748920  2306.849107   201.367655 -2102.155861 -1789.663477   696.237432
0.049200  2262.259092  1055.029911 -1377.249340 -2098.845890  -290.058374  1830.722483
0.050400  1734.658530  -431.598502 -2065.968342 -1219.083452  1091.625375  2105.857336
0.051600   583.568243 -1680.662632 -1940.123285   173.707298  2132.742952  1500.141476
0.052800 -1022.682887 -2333.682946  -754.016051  1807.335612  2151.142816  -198.724451
0.054000 -2333.304442 -1553.407562  1177.620324  2441.094104   646.495964 -1937.603380
0.055200 -2077.885394   357.747991  2311.030928  1384.585252 -1215.488350 -2267.574220
0.056400  -522.893910  1804.031146  1875.734939  -307.423654 -2060.946685 -1302.100906
0.057600  1002.059098  2061.809310   646.076707 -1523.217509 -1863.288141    30.859898
0.058800  1900.115263  1488.187192  -741.650215 -2100.516010  -920.265354  1412.488996
0.060000  2060.677794   171.638331 -1974.910421 -1715.237047   694.869288  2284.043879
0.061200  1044.546117 -1518.313696 -2213.061800  -145.620143  2119.940487  1746.577087
0.062400  -807.860980 -2347.278034  -954.408684  1608.905277  2149.215938    24.726080
0.063600 -2088.296535 -1598.203437   838.734483  2198.889503   845.723470 -1498.225249
0.064800 -1964.955755   -45.278381  1875.491408  1501.247463  -654.582169 -1995.852115
0.066000  -929.378938  1239.985846  1901.394360   280.788629 -1681.197846 -1629.131518
0.067200   397.489652  1969.443316  1171.370052 -1089.995877 -2068.875280  -503.950932
0.068400  1731.820720  1860.589624  -328.864887 -2150.819175 -1317.946188  1188.755333
0.069600  2236.019831   483.215674 -1884.982742 -1893.623431   464.708375  2228.465103
0.070800  1199.462953 -1303.400603 -2146.514313  -325.168472  1856.183990  1699.393610
0.072000  -521.971518 -2045.866512 -1051.344197  1178.952168  1923.809752   351.997867
0.073200 -1598.813209 -1597.021901   308.700877  1814.327374  1147.101726  -899.582636
0.074400 -1876.483436  -598.141099  1420.557904  1745.026741   -56.297277 -1829.150132
0.075600 -1385.986416   786.100926  2038.603327   778.808666 -1490.423682 -1938.280024
0.076800    29.733659  1987.170402  1481.129611  -882.830489 -2155.982433  -733.353128
0.078000  1608.418347  1934.313262  -146.019213 -2021.298601 -1366.493570   964.928242
0.079200  2060.391667   612.102095 -1554.475783 -1772.146466   170.627737  1854.521886
0.080400  1253.026035  -841.362256 -1873.808392  -639.951260  1334.080142  1676.239206
0.081600    11.124960 -1654.874881 -1323.383715   598.661217  1805.602260   843.183400
0.082800 -1154.143524 -1781.497837  -241.578808  1628.298017  1532.546209  -466.064147
0.084000 -1938.868875 -1032.360304  1183.676501  1966.738837   296.970048 -1772.409422
0.085200 -1652.334533   539.215504  2071.722932  1014.684889 -1309.067658 -1986.243660
0.086400  -179.100842  1826.468863  1538.358111  -639.022386 -1985.105788  -864.367641
0.087600  1282.730691  1801.551859   129.161389 -1644.408537 -1388.977389   521.828593
0.088800  1758.601360   871.287495 -1028.986104 -1673.357156  -320.297348  1416.060264
0.090000  1463.090857  -247.169562 -1686.842190 -1100.334159   843.107968  1799.608335
0.091200   564.717780 -1410.115674 -1689.247662   133.580940  1835.881526  1276.734171
0.092400  -893.784816 -1977.564453  -588.827144  1553.193256  1766.642955  -235.479273
0.093600 -1942.147837 -1215.474475  1020.333447  1959.109663   456.060809 -1574.295522
0.094800 -1625.138814   315.984561  1820.306815  1070.138808  -952.826458 -1770.715738
0.096000  -429.507047  1388.863324  1494.118115  -183.363474 -1610.239173 -1086.589981
0.097200   729.498124  1665.173218   605.755267 -1190.580186 -1556.135326   -35.372319
0.098400  1544.436994  1266.885866  -566.874686 -1748.719378  -797.040233  1173.274925
0.099600  1729.078270   145.700959 -1655.832459 -1413.811397   597.772444  1890.451293
0.100800   826.308538 -1282.961606 -1798.738797   -67.485113  1750.525131  1378.548306
0.102000  -707.219363 -1887.590143  -709.843377  1319.686058  1675.054721   -35.769874
0.103200 -1654.173401 -1216.937529   681.340857  1696.189249   638.907844 -1151.150457
0.104400 -1514.049930   -59.773390  1436.988340  1194.608713  -463.926564 -1558.909886
0.105600  -792.299394   934.931236  1556.995472   298.812582 -1344.603763 -1380.335244
0.106800   283.142696  1649.093350  1004.263519  -912.249037 -1740.877641  -401.996641
0.108000  1469.607125  1523.951651  -337.864463 -1800.864657 -1012.257690  1047.145261
