##TITLE=1D-13C-1-2-5-328-110-"no"-"yes"
##JCAMP-DX=5.01 $$ Magritek Spinsolve SPA1903 2.0.4.4423
##DATA TYPE=NMR FID
##DATA CLASS=NTUPLES
##ORIGIN=SPA1903 at Magritek
##OWNER=Copyright (C) 2025 by Magritek
##LONGDATE=2025/03/17 08:24:17.376
##.OBSERVE FREQUENCY=15.4860999900848
##.OBSERVE NUCLEUS=^13C
##.DELAY=( 20,  2000)
##.ACQUISITION MODE=SIMULTANEOUS
##.FIELD= 1.5
##.AVERAGES= 1
##.DIGITISER RES=16
##.SHIFT REFERENCE=(INTERNAL, Water, 4096, 0)
##$REFERENCE_POINT= 796.529    $$ Referencing label
$$      Distance of the zero axis position (in Hz) from the last data
$$      point (right edge); positive values -> right edge is below 0 Hz
##SPECTROMETER/DATA SYSTEM=Magritek
##SAMPLE DESCRIPTION=solvent=Water
$$ Bruker specific parameters
$$ --------------------------
##$AUNMP=   <proc_1d_nosref>
##$INSTRUM= <Magritek>
##$SI=      8192
##$TD=      8192
##$TDeff=   8192
##$SW=      322.870200
##$BF1=     15.4860999900848
##$SF=      15.4843965190859
##$LB=      0
##$PHC0=    217.2
##$PHC1=    0.0
##$REVERSE= yes
$$ End of Bruker specific parameters
$$ ---------------------------------
##NTUPLES=NMR FID
##VAR_NAME=        TIME,            FID/REAL,            FID/IMAG, PAGE NUMBER
##SYMBOL=             X,                   R,                   I,           N
##VAR_TYPE= INDEPENDENT,           DEPENDENT,           DEPENDENT,        PAGE
##VAR_FORM=        AFFN,                AFFN,                AFFN,        AFFN
##VAR_DIM=         8192,                8192,                8192,           2
##UNITS=        SECONDS,     ARBITRARY UNITS,     ARBITRARY UNITS,            
##FIRST=              0,                   0,                   0,           1
##LAST=    1.638199e+00,   0.630126427269037,  -0.324867051179479,           2
##MIN=                0,   -19024.8662600585,    -17995.307605968,           1
##MAX=     1.638199e+00,    18192.7639503157,    19689.6135531284,           2
##FACTOR=             1,                   1,                   1,           1
##PAGE=N=1
##DATA TABLE=(X++(R..R)), XYDATA
0.000000     0.000000  7856.158959 -14620.728662 -18319.298500   894.488002 18192.763950
0.001200 13159.330758 -7879.665926 -19024.866260 -6652.183470 13644.275326 16739.596630
0.002400  -551.100081 -16602.606537 -12315.405682  6588.076439 17311.127796  7102.900734
0.003600 -11645.814553 -16150.376318 -1026.077023 15191.298856 12972.814071 -4881.024281
0.004800 -16937.073492 -8523.112779 10525.708533 16933.057723  2384.735462 -15310.926821
0.006000 -14086.906362  4576.378923 17570.517620  8924.490624 -10734.753583 -17235.346388
0.007200 -2407.715907 15527.719524 14186.299048 -4860.990679 -17759.835020 -8459.236158
0.008400 11149.307239 16663.721239  1643.059892 -15102.432348 -13103.818388  4894.653762
0.009600 16622.844014  7786.951467 -10408.209006 -15471.828226 -1620.911714 13801.916175
0.010800 12231.406746 -3994.991437 -15181.755471 -7909.467183  8916.656545 14745.609069
0.012000  2587.243335 -12520.992951 -12328.222984  2637.112278 14393.066010  8871.641420
0.013200 -7587.343680 -15100.306502 -4005.393523 12296.048648 13431.233402 -2072.768562
0.014400 -14996.295350 -9504.519536  7735.432380 15659.678745  4166.034121 -12774.606858
0.015600 -13781.027802  2551.763788 15514.093850  8974.912736 -8479.300905 -15200.525491
0.016800 -3185.148173 12619.884974 12675.419096 -2954.935001 -14563.909710 -7944.713851
0.018000  8042.800779 13724.226000  2868.800307 -11074.177680 -11563.439232  1853.169694
0.019200 12969.591073  8255.097178 -6437.453567 -13148.687686 -3976.617928  9853.335098
0.020400 11877.369781  -422.555962 -12478.706111 -9475.907985  5381.136563 13854.505219
0.021600  5194.566214 -10007.872100 -12918.236734   161.741693 13170.119861  9953.741347
0.022800 -5728.190784 -14407.851292 -5084.882252 10603.548746 12955.351623  -817.668394
0.024000 -13372.456798 -9247.466813  6161.249396 13769.066978  4382.083047 -10258.353768
0.025200 -12071.174415   980.794490 12530.171880  8484.045425 -5706.405862 -12587.599400
0.026400 -4208.453663  9005.076246 11234.674761  -103.869890 -11292.264083 -8677.059928
0.027600  4481.350076 12046.543204  4974.036999 -7962.777327 -11277.834169 -1027.586874
0.028800 10658.438685  9524.235186 -3460.063277 -12376.653784 -6002.522886  7810.802802
0.030000 12015.951218  1493.306291 -10994.273842 -10110.122631  3442.830010 12959.267651
0.031200  6216.976533 -8385.980156 -12340.826276  -890.843150 11429.826782  9524.832128
0.032400 -4042.927886 -12540.829756 -5424.939793  8388.668561 11502.403497   308.256300
0.033600 -10794.186055 -8371.085739  3906.178234 11073.911414  4870.550199 -7076.734232
0.034800 -10336.595226 -1032.824950  9338.592037  8252.026758 -2625.328327 -10162.909192
0.036000 -5597.023009  5693.211037 10338.057558  2443.381358 -8705.849427 -9300.686525
0.037200  1657.545804 10690.795125  6586.534922 -5719.048824 -11137.490913 -2775.664952
0.038400  9244.267817  9829.794779 -1996.472370 -11353.376400 -6400.552457  6501.468856
0.039600 11113.830211  1891.516835 -9492.977809 -8981.707920  2576.715412 10755.847166
0.040800  5511.707769 -6389.906402 -10105.834520 -1381.653437  8669.865382  7909.909351
0.042000 -2241.586247 -9422.116100 -5212.825990  5208.948860  9269.879885  2055.476817
0.043200 -7585.961984 -7899.485232  1284.759316  8786.510176  5738.633399 -4234.006671
0.044400 -9265.400016 -3048.839345  7120.266673  8617.771321  -615.566159 -9107.397335
0.045600 -6382.009406  4177.625312  9734.422927  3358.879526 -7385.254082 -9075.383066
0.046800   722.625550  9672.273692  6394.134684 -4783.743482 -9847.798848 -2762.653404
0.048000  7648.681322  8596.160211 -1183.984875 -9477.816554 -5780.737571  5017.862498
0.049200  9206.869897  2041.941759 -7202.049704 -7501.846935  1147.821446  8284.173283
0.050400  5315.005213 -4060.846429 -8297.253579 -2429.102211  6115.228898  7202.262952
0.051600  -184.864028 -7365.850447 -5853.987706  2813.844002  8290.422522  3649.623918
0.052800 -5601.028324 -8071.013374  -650.603825  7716.199052  6762.784023 -2658.381257
0.054000 -9076.153346 -4185.850732  6178.800599  8840.600646   310.550025 -8576.250147
0.055200 -6644.569706  3523.730310  9178.883496  3389.150419 -6526.263165 -8211.362659
0.056400   316.182864  8260.318874  5791.210494 -3659.217178 -8264.877901 -2738.743199
0.057600  5804.765446  7129.231959   -35.185250 -7005.357248 -5499.216135  2587.208591
0.058800  7445.783315  3307.353029 -4699.746861 -7036.203402 -1010.867126  6319.896283
0.060000  6203.855740 -1556.497381 -7656.392977 -4325.121979  4469.396383  7775.176545
0.061200  1521.848068 -6624.996758 -6767.978408  1460.897870  8129.088273  4698.890874
0.062400 -4822.767393 -8310.892984 -1281.146913  7223.133316  6615.573060 -2083.450337
0.063600 -8113.389331 -4114.367640  5013.745038  7857.526697   830.552031 -7038.890835
0.064800 -5945.823775  2306.249376  7404.478117  3471.801361 -4504.259690 -6932.389743
0.066000  -897.211993  6115.235640  5481.511021 -1712.538663 -6540.275729 -3518.176844
0.067200  3497.594968  6384.827554  1741.604918 -5140.848409 -5915.490815   613.431377
0.068400  6494.984671  4443.799961 -3052.794713 -6913.135110 -2385.374337  5246.461492
0.069600  6603.544248  -353.225905 -7097.626725 -4954.656455  3509.084878  7571.531303
0.070800  2104.240187 -5976.932855 -6526.103493  1110.119398  7305.105482  4261.319059
0.072000 -4061.047923 -7095.900601 -1235.971806  5873.820305  5483.921525 -1472.561357
0.073200 -6324.358637 -3447.734928  3422.314738  6010.000856  1338.667215 -4814.003687
0.074400 -5020.311672   745.901746  5432.520619  3639.395055 -2365.853103 -5633.320818
0.075600 -2274.007640  4000.937088  5608.253759   248.844209 -5600.138848 -4570.420399
0.076800  2147.034760  6301.753700  2743.139271 -4338.141055 -6197.962157  -225.986303
0.078000  6213.854451  4804.371007 -2696.765866 -6693.073787 -2302.535034  4842.089100
0.079200  5957.379324  -310.177265 -6230.123196 -4305.157386  3026.403015  6341.408899
0.080400  1670.120264 -4756.346482 -5134.656891   563.900785  5414.880243  3715.799791
0.081600 -2468.822536 -5571.944978 -1794.422253  4028.881923  4781.058557  -103.152641
0.082800 -4678.115683 -3743.066820  1602.746526  5145.403703  2515.180215 -3269.549705
0.084000 -5134.056502  -757.752876  4570.232361  4457.473352 -1101.781495 -5544.268793
0.085200 -3241.425462  3296.734792  5890.658233  1030.294554 -5211.228221 -4914.279966
0.086400  1541.201548  6084.868793  3046.254461 -3838.741763 -5948.547548  -538.642955
0.087600  5535.269377  4524.501022 -2134.556416 -5885.464352 -2227.479890  3936.903081
0.088800  5037.597577    74.893205 -4738.748114 -3717.221565  1686.553358  4877.989476
0.090000  2153.219198 -2990.049415 -4423.510415  -694.040872  3725.379659  3815.635880
0.091200  -581.992604 -4442.410584 -3046.872526  2173.478746  4891.520672  1638.229025
0.092400 -3697.924026 -4633.194650   130.508581  4980.011123  3767.351472 -2366.511195
0.093600 -5691.998535 -1727.038130  4463.958283  4921.067565  -769.617986 -5393.763967
0.094800 -3313.638688  2876.162992  5486.403926  1163.828150 -4583.531068 -4390.274954
0.096000  1247.522924  5016.984860  2543.787162 -2779.881769 -4589.954734  -885.942072
0.097200  3812.206286  3780.876940  -838.403471 -4244.657947 -2458.586649  2061.552598
0.098400  4032.564358  1320.527857 -2987.205562 -3829.425696    -2.017073  3928.079127
0.099600  3057.030384 -1537.238203 -4257.652082 -1884.136027  2827.525158  4273.521513
0.100800   441.838874 -4165.393649 -3647.139479  1572.779818  4872.003641  2018.178264
0.102000 -3373.480825 -4546.044665   -42.761604  4555.246637  3445.622647 -2050.658144
0.103200 -4937.071450 -1519.214708  3738.978918  4141.698768  -599.721008 -4385.446424
0.104400 -2648.397164  2214.520325  4176.582838  1010.757922 -3237.983847 -3383.498373
0.105600   526.950370  3566.357964  2255.551600 -1552.137192 -3402.020322 -1331.077344
0.106800  2285.853907  3296.396102   375.696642 -3109.741162 -2887.948396   873.786278
0.108000  3643.533017  2054.546646 -2118.809009 -3921.308602  -872.145702  3537.769055
