##TITLE=1D-13C-1-2-5-328-110-"no"-"yes"
##JCAMP-DX=5.01 $$ Magritek Spinsolve SPA1903 2.0.4.4423
##DATA TYPE=NMR FID
##DATA CLASS=NTUPLES
##ORIGIN=SPA1903 at Magritek
##OWNER=Copyright (C) 2025 by Magritek
##LONGDATE=2025/03/17 11:58:20.680
##.OBSERVE FREQUENCY=15.4860999900848
##.OBSERVE NUCLEUS=^13C
##.DELAY=( 20,  2000)
##.ACQUISITION MODE=SIMULTANEOUS
##.FIELD= 1.5
##.AVERAGES= 1
##.DIGITISER RES=16
##.SHIFT REFERENCE=(INTERNAL, Water, 4096, 0)
##$REFERENCE_POINT= 796.529    $$ Referencing label
$$      Distance of the zero axis position (in Hz) from the last data
$$      point (right edge); positive values -> right edge is below 0 Hz
##SPECTROMETER/DATA SYSTEM=Magritek
##SAMPLE DESCRIPTION=solvent=Water
$$ Bruker specific parameters
$$ --------------------------
##$AUNMP=   <proc_1d_nosref>
##$INSTRUM= <Magritek>
##$SI=      8192
##$TD=      8192
##$TDeff=   8192
##$SW=      322.870200
##$BF1=     15.4860999900848
##$SF=      15.4843965190859
##$LB=      0
##$PHC0=    217.1
##$PHC1=    0.0
##$REVERSE= yes
$$ End of Bruker specific parameters
$$ ---------------------------------
##NTUPLES=NMR FID
##VAR_NAME=        TIME,            FID/REAL,            FID/IMAG, PAGE NUMBER
##SYMBOL=             X,                   R,                   I,           N
##VAR_TYPE= INDEPENDENT,           DEPENDENT,           DEPENDENT,        PAGE
##VAR_FORM=        AFFN,                AFFN,                AFFN,        AFFN
##VAR_DIM=         8192,                8192,                8192,           2
##UNITS=        SECONDS,     ARBITRARY UNITS,     ARBITRARY UNITS,            
##FIRST=              0,                   0,                   0,           1
##LAST=    1.638199e+00,   0.284377420300585,  -0.193184069807478,           2
##MIN=                0,   -6248.45010309767,   -6013.72452527011,           1
##MAX=     1.638199e+00,    6031.06263202264,    6494.60424383242,           2
##FACTOR=             1,                   1,                   1,           1
##PAGE=N=1
##DATA TABLE=(X++(R..R)), XYDATA
0.000000     0.000000  2602.121834 -4751.756129 -6052.353607   274.459738  6031.062632
0.001200  4322.584674 -2663.608553 -6248.450103 -2111.385349  4484.031043  5448.275573
0.002400  -195.218136 -5431.243933 -4034.178769  2146.491233  5659.367173  2345.047201
0.003600 -3761.586110 -5307.412792  -452.594231  4939.935561  4389.284175 -1474.526768
0.004800 -5625.211071 -2970.975374  3389.548056  5695.035608   988.096339 -5030.376901
0.006000 -4910.290477  1315.891116  5994.393590  3264.403998 -3566.026103 -6021.795480
0.007200  -978.648931  5311.001409  4990.039396 -1540.936963 -6123.432212 -3070.676727
0.008400  3757.904930  5859.812089   696.906133 -5224.418347 -4627.109766  1615.862258
0.009600  5753.807862  2791.601741 -3499.429311 -5398.091637  -719.343988  4707.926928
0.010800  4345.929213 -1220.342509 -5227.896207 -2911.492041  2881.801213  5174.066079
0.012000  1215.434130 -4208.471999 -4547.048437   610.032113  5069.742933  3422.227410
0.013200 -2450.003945 -5437.235919 -1763.137939  4192.508764  5047.262871  -366.822864
0.014400 -5404.039138 -3778.498189  2584.017578  5796.155972  1798.357564 -4498.166283
0.015600 -5188.899425   632.282236  5628.422690  3563.397025 -2875.098562 -5654.314484
0.016800 -1424.644759  4477.667126  4768.121945  -782.448072 -5226.365263 -3186.312204
0.018000  2639.082423  5105.058098  1392.561926 -3888.942321 -4421.692411   335.025811
0.019200  4641.279244  3340.924630 -1971.388868 -4902.335358 -1935.029538  3391.590389
0.020400  4678.140182   292.715020 -4558.874869 -3904.138660  1611.331426  5251.836001
0.021600  2433.046852 -3474.152064 -5149.761747  -423.411278  4902.659730  4164.563246
0.022800 -1796.836501 -5553.080366 -2373.074548  3759.673327  5185.181086   155.871659
0.024000 -5012.081451 -3905.023925  1995.168562  5340.065216  2069.428520 -3660.745965
0.025200 -4797.056463   -72.901138  4631.539195  3613.362785 -1746.840375 -4869.534549
0.026400 -2069.802369  3149.608610  4511.719509   447.413927 -4135.640501 -3718.676629
0.027600  1192.018690  4660.591053  2500.681802 -2709.155979 -4676.074562  -973.420977
0.028800  3989.603558  4152.772687  -820.370259 -4891.721110 -2951.631808  2697.773288
0.030000  5064.041764  1156.460437 -4245.858772 -4430.935813   924.079835  5183.119826
0.031200  2961.717755 -2981.034418 -5161.773222  -895.733112  4420.419076  4199.554527
0.032400 -1189.703445 -5018.868968 -2602.964634  2953.763391  4757.169055   713.595702
0.033600 -4057.304079 -3786.081286  1009.430918  4456.812343  2506.652005 -2403.259789
0.034800 -4362.786173 -1068.842196  3475.072623  3825.888729  -409.153553 -4169.630131
0.036000 -2936.372024  1890.340062  4517.322608  1652.238625 -3334.824413 -4309.245423
0.037200    65.848952  4452.690972  3368.041959 -1950.163287 -4921.333103 -1764.657602
0.038400  3651.612173  4530.010266  -270.741207 -4721.895315 -3252.830323  2259.684118
0.039600  4897.991222  1432.606610 -3734.493402 -4190.384021   503.805832  4469.901174
0.040800  2887.591772 -2161.279309 -4445.811510 -1289.961656  3333.741915  3820.227546
0.042000  -275.837414 -3951.106904 -2833.007465  1660.436553  4133.122633  1622.832030
0.043200 -2845.402862 -3885.826780  -223.874963  3732.702777  3190.190848 -1249.330587
0.044400 -4245.023625 -2075.363491  2718.563151  4246.755669   512.369781 -3921.704350
0.045600 -3521.921030  1266.983577  4542.830968  2196.223470 -2925.363804 -4431.949264
0.046800  -391.080132  4152.155667  3486.332450 -1515.033739 -4575.858866 -1937.496645
0.048000  3039.601869  4191.207618   165.368930 -3990.134620 -3156.044430  1514.633415
0.049200  4191.989240  1723.326799 -2724.694759 -3788.341893  -304.978343  3473.661283
0.050400  3032.807927 -1037.948193 -3819.427731 -1998.653213  2206.067941  3769.281767
0.051600   812.532087 -3176.277613 -3391.861619   554.226947  3927.756099  2523.378618
0.052800 -2057.399986 -4190.602830 -1141.119277  3397.778046  3781.449833  -577.063520
0.054000 -4290.625824 -2648.864955  2342.402211  4410.570723   950.601084 -3679.063388
0.055200 -3679.878574   892.644251  4278.451709  2321.644218 -2447.673991 -4097.578794
0.056400  -699.634537  3447.934468  3291.403904  -835.027333 -3828.199500 -2149.053101
0.057600  2048.964854  3700.500857   918.448960 -2920.973065 -3241.542021   331.871997
0.058800  3508.940033  2473.169746 -1566.103181 -3750.004426 -1396.925194  2712.004086
0.060000  3593.246967    66.706797 -3638.663489 -2901.923836  1479.274575  4097.137818
0.061200  1639.094958 -2901.069252 -3875.687370   -20.031224  3894.947195  2967.320100
0.062400 -1687.587137 -4238.212153 -1483.338777  3094.122212  3771.890817  -210.769639
0.063600 -3860.507294 -2699.301803  1757.091931  3971.535754  1274.994516 -2916.933547
0.064800 -3439.271644   200.485345  3482.430763  2497.420457 -1452.539385 -3582.179029
0.066000 -1398.582173  2435.645243  3303.059109   197.327990 -3124.961111 -2701.603996
0.067200   977.278309  3512.373703  1835.755972 -2134.810023 -3579.071161  -626.782572
0.068400  3184.330543  3124.827703  -834.266172 -3835.708029 -2106.956052  2301.501803
0.069600  3895.715993   610.255132 -3480.161333 -3212.254607  1088.337933  4012.321110
0.070800  1903.838093 -2552.563802 -3763.586646  -299.797476  3453.101122  2862.012992
0.072000 -1216.238280 -3689.761645 -1606.773215  2346.329256  3339.537541   297.513946
0.073200 -3000.561374 -2630.322532   855.668507  3263.424619  1756.302232 -1836.308259
0.074400 -3222.476156  -737.402173  2657.305715  2879.016517  -395.221219 -3257.774555
0.075600 -2192.555796  1607.848917  3519.925357  1102.114131 -2768.097486 -3252.037367
0.076800   334.042371  3556.195155  2372.605209 -1790.633799 -3755.360945 -1024.625338
0.078000  3001.623061  3268.844463  -555.444731 -3644.072481 -2164.028108  1957.135587
0.079200  3585.809952   781.002605 -2926.650238 -2975.435128   614.694521  3362.222117
0.080400  1944.033081 -1777.470125 -3242.411740  -788.142973  2540.497373  2779.009859
0.081600  -314.273660 -3001.796534 -2059.577814  1352.541605  3120.629052  1136.123383
0.082800 -2213.967989 -2931.343823  -107.339770  2918.860565  2428.438437 -1077.307936
0.084000 -3339.637121 -1503.037017  2246.597284  3276.553480   240.504773 -3164.121206
0.085200 -2663.873374  1193.812669  3608.181340  1503.682153 -2500.706356 -3359.683794
0.086400   -16.174409  3311.723104  2482.394282 -1412.480755 -3486.285127 -1222.353360
0.087600  2483.685274  3047.230876  -112.261494 -3028.367990 -2193.604299  1240.797375
0.088800  3067.384933  1192.860826 -2043.901591 -2784.746572  -210.261998  2586.615578
0.090000  2286.409664  -750.159073 -2913.403014 -1594.142497  1679.023872  2976.857226
0.091200   667.360348 -2542.637197 -2709.164323   498.467202  3181.249818  1945.413142
0.092400 -1769.819620 -3332.853388  -735.702232  2820.150476  2872.656925  -688.469158
0.093600 -3413.383946 -1858.688146  2014.769611  3320.625902   478.628511 -2894.461832
0.094800 -2630.540307   852.163312  3209.714258  1591.279552 -1929.595412 -2998.765447
0.096000  -396.706543  2589.251722  2374.701086  -657.043354 -2823.654099 -1587.682231
0.097200  1530.911628  2790.608902   689.495219 -2231.843184 -2459.022304   265.556132
0.098400  2682.349575  1888.026142 -1219.761176 -2914.319452 -1059.316153  2162.555197
0.099600  2774.024356   -56.889355 -2873.145817 -2161.700038  1260.913284  3179.320032
0.100800  1146.434036 -2362.993985 -2945.744791   177.988425  3079.649240  2115.974993
0.102000 -1486.698529 -3200.903008  -912.427026  2464.467121  2732.220444  -381.202611
0.103200 -2950.269311 -1827.649079  1484.575140  2885.143207   751.915830 -2205.191325
0.104400 -2415.288916   262.253518  2545.764699  1745.863870 -1110.251807 -2600.936573
0.105600  -980.171086  1803.692633  2441.118596   151.254881 -2353.414945 -2047.553774
0.106800   759.989306  2719.766577  1381.156422 -1731.875749 -2787.534782  -373.814289
0.108000  2569.062225  2344.196768  -837.818249 -3022.754640 -1439.576236  1980.959883
