##TITLE=1D-13C-1-2-5-328-110-"no"-"yes"
##JCAMP-DX=5.01 $$ Magritek Spinsolve SPA1903 2.0.4.4423
##DATA TYPE=NMR FID
##DATA CLASS=NTUPLES
##ORIGIN=SPA1903 at Magritek
##OWNER=Copyright (C) 2025 by Magritek
##LONGDATE=2025/03/17 11:59:55.162
##.OBSERVE FREQUENCY=15.4860999900848
##.OBSERVE NUCLEUS=^13C
##.DELAY=( 20,  2000)
##.ACQUISITION MODE=SIMULTANEOUS
##.FIELD= 1.5
##.AVERAGES= 1
##.DIGITISER RES=16
##.SHIFT REFERENCE=(INTERNAL, Water, 4096, 0)
##$REFERENCE_POINT= 796.529    $$ Referencing label
$$      Distance of the zero axis position (in Hz) from the last data
$$      point (right edge); positive values -> right edge is below 0 Hz
##SPECTROMETER/DATA SYSTEM=Magritek
##SAMPLE DESCRIPTION=solvent=Water
$$ Bruker specific parameters
$$ --------------------------
##$AUNMP=   <proc_1d_nosref>
##$INSTRUM= <Magritek>
##$SI=      8192
##$TD=      8192
##$TDeff=   8192
##$SW=      322.870200
##$BF1=     15.4860999900848
##$SF=      15.4843965190859
##$LB=      0
##$PHC0=    217.0
##$PHC1=    0.0
##$REVERSE= yes
$$ End of Bruker specific parameters
$$ ---------------------------------
##NTUPLES=NMR FID
##VAR_NAME=        TIME,            FID/REAL,            FID/IMAG, PAGE NUMBER
##SYMBOL=             X,                   R,                   I,           N
##VAR_TYPE= INDEPENDENT,           DEPENDENT,           DEPENDENT,        PAGE
##VAR_FORM=        AFFN,                AFFN,                AFFN,        AFFN
##VAR_DIM=         8192,                8192,                8192,           2
##UNITS=        SECONDS,     ARBITRARY UNITS,     ARBITRARY UNITS,            
##FIRST=              0,                   0,                   0,           1
##LAST=    1.638199e+00,  -0.522622104945969,   0.495837628340257,           2
##MIN=                0,   -2776.34293626605,   -2722.12428133193,           1
##MAX=     1.638199e+00,    2692.68964923968,    2895.66189593702,           2
##FACTOR=             1,                   1,                   1,           1
##PAGE=N=1
##DATA TABLE=(X++(R..R)), XYDATA
0.000000     0.000000  1169.134227 -2104.338823 -2699.351594   113.705922  2685.837675
0.001200  1925.569025 -1187.196883 -2776.342936  -940.772305  1981.118306  2426.247916
0.002400   -74.458228 -2414.787136 -1804.514248   951.771482  2522.856497  1049.316349
0.003600 -1666.124217 -2361.254076  -228.802455  2189.676463  1974.570316  -635.579427
0.004800 -2512.119609 -1355.326115  1497.618931  2557.749896   474.949846 -2228.998746
0.006000 -2224.163774   556.411861  2692.689649  1503.745400 -1575.095223 -2722.290984
0.007200  -478.255960  2381.630335  2280.473322  -668.161109 -2762.433174 -1419.181141
0.008400  1672.024975  2657.579880   346.564424 -2348.980907 -2108.920446   703.103089
0.009600  2601.335195  1290.400430 -1547.954745 -2445.863331  -362.359427  2109.970268
0.010800  1986.122058  -512.148938 -2356.495581 -1354.761533  1264.612240  2347.688698
0.012000   601.084812 -1872.117046 -2089.696503   225.918197  2299.995984  1599.591005
0.013200 -1074.170686 -2486.592319  -865.209466  1875.209147  2337.343187  -110.897321
0.014400 -2466.579446 -1779.061044  1140.048494  2662.755206   870.953581 -2034.755708
0.015600 -2405.087988   231.596481  2558.769011  1679.002613 -1267.722216 -2601.050606
0.016800  -704.073750  2017.341427  2204.614832  -303.326816 -2380.106302 -1507.721998
0.018000  1157.521320  2349.583023   700.182679 -1741.441886 -2057.444592    90.888643
0.019200  2109.819246  1587.746612  -839.542552 -2258.220342  -961.667062  1516.593945
0.020400  2192.353510   206.369474 -2073.847228 -1858.406489   678.301876  2425.767928
0.021600  1190.934550 -1550.622131 -2411.532311  -273.877169  2242.107472  1981.061815
0.022800  -768.714128 -2571.067918 -1164.363412  1690.764811  2427.184756   142.667609
0.024000 -2296.452165 -1864.937529   858.202751  2476.299935  1025.076742 -1644.063274
0.025200 -2249.656869  -116.874206  2111.632451  1735.498887  -735.160502 -2261.051227
0.026400 -1037.759849  1400.233457  2124.695677   293.614205 -1878.443162 -1789.939924
0.027600   463.544691  2168.004466  1249.212856 -1194.432175 -2212.821646  -546.928526
0.028800  1829.207219  2003.600553  -294.118360 -2273.017560 -1467.503789  1193.851226
0.030000  2403.864283   630.194789 -1952.464346 -2130.682536   356.338745  2415.614793
0.031200  1460.173317 -1320.941758 -2439.869067  -510.686320  2021.643303  2022.344657
0.032400  -474.483325 -2340.009976 -1294.379490  1305.989369  2245.934668   435.982376
0.033600 -1849.253180 -1838.967033   374.370935  2079.202068  1264.587538 -1047.174996
0.034800 -2079.219249  -613.645404  1576.678319  1874.595560   -83.789416 -1959.658287
0.036000 -1481.566362   808.296778  2166.617169   888.775581 -1524.302693 -2108.467938
0.037200   -75.621874  2100.000725  1687.186099  -844.319397 -2355.104933  -937.839468
0.038400  1674.106718  2200.731808   -26.841320 -2218.818843 -1625.183716   979.280561
0.039600  2335.719779   784.497900 -1707.702047 -2049.040949   125.058506  2093.144990
0.040800  1464.693335  -919.808476 -2131.267381  -736.064268  1509.905413  1891.101983
0.042000    -3.217028 -1853.156156 -1452.648287   683.931560  1989.403850   898.953147
0.043200 -1282.572525 -1924.751639  -238.220502  1758.606837  1628.931974  -492.968801
0.044400 -2060.279174 -1119.386407  1234.215453  2106.304200   370.127817 -1856.631035
0.045600 -1804.172387   504.070252  2210.635474  1171.219875 -1331.945963 -2187.136681
0.046800  -308.107898  1953.536651  1766.581634  -612.679196 -2203.941791 -1044.969897
0.048000  1378.327255  2062.541508   203.376390 -1863.620019 -1608.747720   599.116296
0.049200  2023.013262   973.690573 -1213.165457 -1888.137981  -288.978053  1627.326007
0.050400  1573.058692  -361.821274 -1844.188846 -1111.047894   959.014558  1892.023514
0.051600   548.201878 -1493.572925 -1756.497497   139.641176  1911.329563  1358.751683
0.052800  -904.592360 -2097.988496  -692.115503  1606.734010  1933.598710  -164.541025
0.054000 -2085.092262 -1402.845007  1043.200077  2183.742707   596.115879 -1718.987158
0.055200 -1871.486764   295.056371  2064.924625  1253.632821 -1071.853071 -2025.295972
0.056400  -490.415228  1592.531713  1694.814543  -249.005919 -1845.672389 -1193.546541
0.057600   867.437871  1848.875994   605.436607 -1357.473182 -1687.558109     6.350138
0.058800  1697.411165  1354.811757  -644.316639 -1890.110863  -844.435233  1256.351802
0.060000  1859.138225   172.836323 -1768.601608 -1549.504315   606.837247  2044.614217
0.061200   950.285629 -1345.998185 -1989.917528  -148.261281  1889.463103  1574.049859
0.062400  -702.877214 -2101.043692  -874.422836  1422.805061  1933.501001    52.213480
0.063600 -1858.764124 -1449.767087   730.956140  1970.057430   782.743778 -1323.642200
0.064800 -1772.690811   -69.127747  1667.863900  1364.917325  -565.072257 -1788.883568
0.066000  -858.108622  1092.072290  1724.230661   278.319254 -1510.077762 -1483.606741
0.067200   337.447399  1776.382813  1076.494242  -969.695713 -1868.769260  -475.732992
0.068400  1540.093142  1678.520190  -275.288229 -1929.202698 -1194.726759  1052.953168
0.069600  2008.095213   454.364737 -1679.261153 -1710.715426   396.842122  1991.381120
0.070800  1087.177047 -1152.140173 -1926.283600  -315.882480  1641.280742  1547.144185
0.072000  -435.485163 -1827.080004  -965.269150  1027.716933  1736.046732   348.005863
0.073200 -1417.509873 -1457.113520   243.000046  1634.719070  1059.994910  -781.861864
0.074400 -1696.695091  -565.587520  1269.161125  1585.347165   -31.935466 -1646.924812
0.075600 -1268.802720   683.790664  1839.084196   721.662591 -1331.154229 -1756.905142
0.076800     9.999652  1785.304152  1345.332879  -776.569755 -1944.756301  -683.958131
0.078000  1429.470555  1751.604424  -103.796087 -1807.062412 -1248.392881   842.230829
0.079200  1857.632230   577.034132 -1371.113163 -1606.365291   121.303852  1656.744580
0.080400  1149.209897  -729.358142 -1687.414712  -601.377049  1183.649967  1527.948102
0.081600    38.380360 -1487.383281 -1218.706965   517.811572  1634.809479   787.591983
0.082800 -1026.632089 -1614.848934  -237.049470  1455.762869  1401.474669  -395.827484
0.084000 -1750.756985  -952.787540  1052.275547  1775.449164   295.587995 -1579.886718
0.085200 -1500.884252   460.942087  1861.864852   931.547824 -1161.794992 -1792.224794
0.086400  -187.599707  1630.392476  1401.993988  -549.135080 -1777.324277  -798.880297
0.087600  1127.550690  1630.994247   145.305360 -1468.632523 -1273.160811   435.497300
0.088800  1580.181122   818.203954  -907.976112 -1527.533042  -322.858532  1263.211065
0.090000  1339.791921  -197.734463 -1523.100496 -1020.315462   745.020715  1635.567855
0.091200   535.398351 -1260.072674 -1538.226980    98.203878  1655.980203  1170.521843
0.092400  -796.264848 -1793.894773  -550.905306  1394.378747  1600.999757  -194.252117
0.093600 -1740.515716 -1113.920269   891.634404  1763.528518   435.451090 -1395.904602
0.094800 -1472.612684   245.409469  1630.592062   992.484958  -829.081741 -1594.878041
0.096000  -419.880335  1235.461586  1366.856683  -139.310347 -1448.632968 -1009.039321
0.097200   632.405604  1511.896016   570.985826 -1062.862877 -1425.694684   -64.391100
0.098400  1393.476456  1172.343392  -494.468794 -1589.823759  -749.345135  1043.881382
0.099600  1576.505204   154.103473 -1484.200784 -1296.979111   521.331759  1713.819327
0.100800   774.044032 -1142.307988 -1639.137827   -87.415331  1568.066287  1253.089965
0.102000  -619.275783 -1694.980058  -662.827959  1165.462933  1522.187180    10.204649
0.103200 -1471.453975 -1121.764481   586.228227  1532.729419   607.497050 -1017.977784
0.104400 -1385.457561   -90.145921  1282.882652  1110.980035  -384.263629 -1417.585435
0.105600  -746.041504   827.481579  1422.685892   299.032131 -1213.307072 -1270.214397
0.106800   233.472020  1497.046893   935.017381  -808.763130 -1583.276734  -387.289195
0.108000  1323.168750  1392.925241  -284.405371 -1622.865989  -935.573235   926.621265
