##TITLE=1D-13C-1-2-5-328-110-"no"-"yes"
##JCAMP-DX=5.01 $$ Magritek Spinsolve SPA1903 2.0.4.4423
##DATA TYPE=NMR FID
##DATA CLASS=NTUPLES
##ORIGIN=SPA1903 at Magritek
##OWNER=Copyright (C) 2025 by Magritek
##LONGDATE=2025/03/17 12:00:21.990
##.OBSERVE FREQUENCY=15.4860999900848
##.OBSERVE NUCLEUS=^13C
##.DELAY=( 20,  2000)
##.ACQUISITION MODE=SIMULTANEOUS
##.FIELD= 1.5
##.AVERAGES= 1
##.DIGITISER RES=16
##.SHIFT REFERENCE=(INTERNAL, Water, 4096, 0)
##$REFERENCE_POINT= 796.529    $$ Referencing label
$$      Distance of the zero axis position (in Hz) from the last data
$$      point (right edge); positive values -> right edge is below 0 Hz
##SPECTROMETER/DATA SYSTEM=Magritek
##SAMPLE DESCRIPTION=solvent=Water
$$ Bruker specific parameters
$$ --------------------------
##$AUNMP=   <proc_1d_nosref>
##$INSTRUM= <Magritek>
##$SI=      8192
##$TD=      8192
##$TDeff=   8192
##$SW=      322.870200
##$BF1=     15.4860999900848
##$SF=      15.4843965190859
##$LB=      0
##$PHC0=    216.6
##$PHC1=    0.0
##$REVERSE= yes
$$ End of Bruker specific parameters
$$ ---------------------------------
##NTUPLES=NMR FID
##VAR_NAME=        TIME,            FID/REAL,            FID/IMAG, PAGE NUMBER
##SYMBOL=             X,                   R,                   I,           N
##VAR_TYPE= INDEPENDENT,           DEPENDENT,           DEPENDENT,        PAGE
##VAR_FORM=        AFFN,                AFFN,                AFFN,        AFFN
##VAR_DIM=         8192,                8192,                8192,           2
##UNITS=        SECONDS,     ARBITRARY UNITS,     ARBITRARY UNITS,            
##FIRST=              0,                   0,                   0,           1
##LAST=    1.638199e+00,  -0.639884909236523,   0.192519990891276,           2
##MIN=                0,   -2232.02024186495,   -2199.00083179159,           1
##MAX=     1.638199e+00,    2166.81141813539,    2321.98703305313,           2
##FACTOR=             1,                   1,                   1,           1
##PAGE=N=1
##DATA TABLE=(X++(R..R)), XYDATA
0.000000     0.000000   942.294341 -1690.514329 -2169.902047    85.620053  2166.409543
0.001200  1553.657569  -950.340754 -2232.020242  -755.939587  1595.932488  1949.299482
0.002400   -57.534967 -1938.480762 -1444.377168   757.446186  2015.773961   850.148366
0.003600 -1322.236839 -1892.829409  -187.893065  1749.761978  1588.191732  -506.278874
0.004800 -2015.712108 -1096.810712  1185.928937  2053.387177   395.779230 -1792.760300
0.006000 -1801.743249   424.157896  2166.811418  1219.600603 -1259.708554 -2193.511193
0.007200  -394.104684  1909.681479  1837.176174  -523.406202 -2229.049453 -1152.830900
0.008400  1340.362595  2140.533327   284.187964 -1899.697598 -1711.051888   560.790910
0.009600  2095.728184  1040.640081 -1246.865434 -1967.222598  -300.499500  1687.589257
0.010800  1607.472519  -406.025691 -1893.187152 -1092.111719  1009.779931  1887.890581
0.012000   495.793767 -1499.588197 -1696.865407   163.780664  1849.538836  1309.618042
0.013200  -849.062339 -2010.780953  -706.331643  1510.228232  1892.166788   -73.530239
0.014400 -1978.592432 -1444.694713   907.225334  2161.058442   714.201584 -1640.778759
0.015600 -1948.952889   179.918599  2067.444414  1365.947663 -1011.798732 -2103.541609
0.016800  -584.886623  1629.634690  1787.732762  -233.128331 -1919.738902 -1225.353838
0.018000   922.085559  1892.710940   582.664127 -1402.103705 -1669.366722    62.973156
0.019200  1697.709753  1288.861064  -660.375140 -1818.189499  -795.696320  1205.070757
0.020400  1770.852205   181.870214 -1671.549626 -1513.999007   528.164913  1960.662884
0.021600   986.138778 -1238.218481 -1958.073998  -238.113798  1810.188328  1613.666508
0.022800  -603.856098 -2080.736139  -963.938002  1354.264842  1972.356258   129.805764
0.024000 -1854.234624 -1523.406476   677.739084  2002.826205   842.471283 -1317.572947
0.025200 -1824.605785  -102.836696  1702.961972  1402.516944  -574.719950 -1823.007788
0.026400  -853.190952  1118.167898  1721.212749   254.683410 -1513.256813 -1456.506697
0.027600   352.363917  1754.068465  1034.617414  -947.701490 -1796.176214  -463.035254
0.028800  1471.408236  1636.464817  -219.942024 -1842.787043 -1207.181530   946.499715
0.030000  1957.549381   537.598582 -1573.379338 -1741.644880   266.918911  1957.019635
0.031200  1200.062331 -1059.434260 -1986.625089  -435.805111  1632.498621  1654.692319
0.032400  -365.460820 -1891.613861 -1065.805871  1037.846600  1822.700428   371.296988
0.033600 -1481.903776 -1496.561543   281.593693  1681.861168  1046.704533  -826.694284
0.034800 -1687.524256  -515.874701  1261.436514  1522.848412   -46.550137 -1581.252558
0.036000 -1227.771126   635.354022  1758.144392   742.676681 -1222.374101 -1722.594471
0.037200   -85.586002  1697.579316  1392.573372  -664.205167 -1916.663186  -782.217805
0.038400  1343.719727  1799.826580    -1.486300 -1798.523555 -1345.292795   776.713531
0.039600  1906.905787   658.012800 -1378.301209 -1680.378275    83.733515  1697.417061
0.040800  1206.969131  -728.175516 -1732.529926  -618.443661  1215.748250  1537.159115
0.042000    15.521214 -1499.290873 -1200.310185   535.300811  1615.269766   754.423847
0.043200 -1022.889798 -1575.815875  -220.256873  1416.458811  1349.798854  -371.050166
0.044400 -1676.633332  -935.179296   983.230454  1720.509480   329.251622 -1500.640939
0.045600 -1488.160094   383.433503  1794.843957   977.021575 -1070.098782 -1794.091404
0.046800  -277.419489  1584.043130  1465.107992  -477.852433 -1796.797909  -873.438309
0.048000  1110.113826  1690.010231   194.714837 -1509.667752 -1327.484186   465.661996
0.049200  1646.678371   807.238603  -968.432576 -1538.361180  -260.107833  1303.948982
0.050400  1298.035631  -265.969118 -1502.122541  -931.724329   757.022725  1552.595489
0.051600   473.081138 -1202.524879 -1444.573788    85.860395  1552.305597  1133.762019
0.052800  -711.797492 -1713.404131  -593.853331  1296.779808  1596.476293  -103.423214
0.054000 -1697.052114 -1170.670334   825.781713  1792.519505   517.748247 -1395.236821
0.055200 -1549.781701   213.818276  1679.678643  1043.696780  -852.240827 -1660.086027
0.056400  -427.802482  1284.789771  1396.601244  -175.028876 -1493.634002  -993.724486
0.057600   682.694646  1515.542521   525.895579 -1082.859960 -1386.309081   -31.551923
0.058800  1374.600599  1128.415526  -501.473478 -1541.660540  -721.189015  1004.496906
0.060000  1532.350795   176.269674 -1433.555754 -1292.788726   468.603527  1673.668931
0.061200   807.551018 -1084.361286 -1645.218552  -151.053092  1537.454635  1310.786099
0.062400  -544.827173 -1719.340322  -742.710882  1148.892466  1593.858018    68.521015
0.063600 -1514.000397 -1205.352882   569.251351  1604.358899   663.062877 -1053.480999
0.064800 -1459.524028   -96.564927  1349.379707  1142.086769  -431.132507 -1461.948861
0.066000  -732.247946   867.645672  1418.503750   266.979658 -1211.268587 -1238.170581
0.067200   240.232821  1442.197028   912.687036  -760.198925 -1538.522423  -423.135573
0.068400  1245.485927  1399.581998  -192.020343 -1580.004823 -1013.386843   836.266569
0.069600  1654.135635   402.959713 -1359.940976 -1426.980492   294.595335  1628.591619
0.070800   924.108410  -915.593006 -1590.013085  -292.547996  1331.799358  1283.020967
0.072000  -323.573440 -1490.327686  -821.882321   812.114498  1425.786639   316.187927
0.073200 -1144.672744 -1214.134534   167.585904  1332.541169   894.104667  -612.421747
0.074400 -1397.281056  -501.073765  1017.101712  1321.084211    17.256446 -1341.708947
0.075600 -1078.263244   533.414496  1518.606954   630.773484 -1061.958351 -1461.371096
0.076800   -33.836009  1454.419319  1136.575687  -609.395464 -1597.614061  -592.649842
0.078000  1153.320321  1455.095552   -52.281438 -1476.252217 -1052.668589   657.384183
0.079200  1527.395885   508.085565 -1110.613153 -1335.505341    62.058989  1348.414229
0.080400   976.165501  -562.851560 -1388.322958  -533.330590   940.856779  1266.131986
0.081600    71.837700 -1206.282337 -1032.337517   386.909514  1342.549512   682.562180
0.082800  -816.521101 -1343.544871  -236.409052  1189.888393  1187.941935  -292.870180
0.084000 -1435.878618  -816.852034   837.814132  1480.086809   281.469754 -1287.591522
0.085200 -1260.898761   349.705969  1535.688733   800.997419  -929.157591 -1489.594748
0.086400  -193.921646  1324.180330  1173.666716  -421.480313 -1463.594833  -695.994107
0.087600   899.693349  1355.213269   158.959198 -1185.059411 -1068.632726   325.970476
0.088800  1297.564426   707.395993  -713.980365 -1266.805136  -305.459098  1022.335225
0.090000  1131.412944  -124.814396 -1248.130538  -876.001021   580.419341  1359.624376
0.091200   473.723443 -1022.522687 -1291.441403    44.807403  1358.209449   996.548628
0.092400  -620.573996 -1484.903466  -493.605481  1123.375256  1341.504583  -120.170130
0.093600 -1428.904271  -948.311765   702.906393  1457.355429   398.790100 -1126.836875
0.094800 -1236.785833   165.441689  1332.803702   847.010134  -649.849707 -1321.445008
0.096000  -379.283830   992.177102  1144.178880   -71.228540 -1182.247148  -864.253468
0.097200   484.149671  1248.085849   514.914940  -847.014574 -1194.709973   -93.540717
0.098400  1140.774595  1004.682052  -367.413907 -1318.442232  -656.752029   834.626590
0.099600  1321.189804   170.344977 -1215.821927 -1103.567174   390.269378  1416.820715
0.100800   679.589744  -916.890660 -1368.162984  -106.502886  1277.988333  1062.512426
0.102000  -472.617100 -1399.811708  -583.557495   935.899075  1272.003870    41.470323
0.103200 -1200.094568  -951.733902   445.118854  1263.478691   542.351171  -802.096231
0.104400 -1155.360897  -122.847306  1040.179058   945.423311  -277.261482 -1168.416254
0.105600  -661.338490   647.369045  1191.466843   293.371064  -983.685085 -1079.930624
0.106800   153.528062  1236.055999   814.971870  -636.967855 -1320.808954  -365.050684
0.108000  1069.343100  1183.468782  -195.622517 -1340.689638  -810.687242   737.068567
