##TITLE=1D-13C-1-2-5-328-110-"no"-"yes"
##JCAMP-DX=5.01 $$ Magritek Spinsolve SPA1903 2.0.4.4423
##DATA TYPE=NMR FID
##DATA CLASS=NTUPLES
##ORIGIN=SPA1903 at Magritek
##OWNER=Copyright (C) 2025 by Magritek
##LONGDATE=2025/03/17 11:57:36.820
##.OBSERVE FREQUENCY=15.4860999900848
##.OBSERVE NUCLEUS=^13C
##.DELAY=( 20,  2000)
##.ACQUISITION MODE=SIMULTANEOUS
##.FIELD= 1.5
##.AVERAGES= 1
##.DIGITISER RES=16
##.SHIFT REFERENCE=(INTERNAL, Water, 4096, 0)
##$REFERENCE_POINT= 796.529    $$ Referencing label
$$      Distance of the zero axis position (in Hz) from the last data
$$      point (right edge); positive values -> right edge is below 0 Hz
##SPECTROMETER/DATA SYSTEM=Magritek
##SAMPLE DESCRIPTION=solvent=Water
$$ Bruker specific parameters
$$ --------------------------
##$AUNMP=   <proc_1d_nosref>
##$INSTRUM= <Magritek>
##$SI=      8192
##$TD=      8192
##$TDeff=   8192
##$SW=      322.870200
##$BF1=     15.4860999900848
##$SF=      15.4843965190859
##$LB=      0
##$PHC0=    217.3
##$PHC1=    0.0
##$REVERSE= yes
$$ End of Bruker specific parameters
$$ ---------------------------------
##NTUPLES=NMR FID
##VAR_NAME=        TIME,            FID/REAL,            FID/IMAG, PAGE NUMBER
##SYMBOL=             X,                   R,                   I,           N
##VAR_TYPE= INDEPENDENT,           DEPENDENT,           DEPENDENT,        PAGE
##VAR_FORM=        AFFN,                AFFN,                AFFN,        AFFN
##VAR_DIM=         8192,                8192,                8192,           2
##UNITS=        SECONDS,     ARBITRARY UNITS,     ARBITRARY UNITS,            
##FIRST=              0,                   0,                   0,           1
##LAST=    1.638199e+00,   0.576463821133373,  -0.731773839278206,           2
##MIN=                0,   -9058.62547971277,   -8587.74188932898,           1
##MAX=     1.638199e+00,    8738.46875362891,    9405.71013087024,           2
##FACTOR=             1,                   1,                   1,           1
##PAGE=N=1
##DATA TABLE=(X++(R..R)), XYDATA
0.000000     0.000000  3757.249660 -6918.246122 -8766.590307   410.162314  8738.468754
0.001200  6260.696238 -3858.178122 -9058.625480 -3063.501596  6502.466728  7893.311716
0.002400  -276.209207 -7866.256235 -5845.791089  3104.601153  8200.004156  3405.776826
0.003600 -5463.752625 -7692.724398  -631.350132  7171.546513  6330.317550 -2180.936540
0.004800 -8141.961941 -4254.344817  4933.243730  8222.100740  1381.261445 -7294.649875
0.006000 -7045.291399  1962.749438  8635.660195  4642.370327 -5169.759834 -8631.200370
0.007200 -1350.740328  7648.276480  7122.090224 -2270.797814 -8792.768575 -4347.788889
0.008400  5425.890268  8356.894905   954.136048 -7488.446802 -6601.078009  2351.017480
0.009600  8249.452858  3955.176704 -5056.103931 -7708.533334  -964.555527  6761.768984
0.010800  6182.463140 -1797.355437 -7483.321446 -4109.024599  4181.615747  7375.790336
0.012000  1642.777174 -6053.916823 -6423.765271   965.455511  7241.590797  4793.851347
0.013200 -3568.174237 -7729.812621 -2413.846258  6020.535593  7107.222119  -636.611442
0.014400 -7687.394713 -5271.468327  3745.892429  8210.957870  2451.249991 -6451.661700
0.015600 -7302.727077  1005.764554  7984.371180  4945.055042 -4150.164996 -7965.860809
0.016800 -1919.469358  6382.151269  6693.424305 -1217.514639 -7429.339009 -4414.915171
0.018000  3836.094811  7197.256606  1860.597261 -5542.757767 -6182.610565   587.111595
0.019200  6587.414563  4619.269104 -2895.625425 -6897.755328 -2601.072251  4852.085899
0.020400  6521.527552   280.186695 -6451.819566 -5390.306799  2388.660856  7380.609909
0.021600  3282.386916 -4978.917767 -7164.861759  -449.412626  6921.611986  5737.256865
0.022800 -2650.304593 -7781.086914 -3191.972371  5380.704245  7200.151850    53.993144
0.024000 -7077.601064 -5359.355103  2927.171506  7466.029426  2761.340765 -5223.566131
0.025200 -6651.238200    54.658585  6539.856116  4940.309029 -2593.727487 -6811.608937
0.026400 -2750.726133  4516.942640  6254.473740   467.641950 -5847.455024 -5082.930600
0.027600  1830.866912  6519.965050  3322.127739 -3900.847759 -6444.341557 -1185.106870
0.028800  5628.993141  5668.748187 -1314.969608 -6820.884982 -3938.990705  3887.041122
0.030000  6972.447641  1435.947202 -5968.329857 -6042.169529  1440.280011  7213.370136
0.031200  3964.668981 -4270.181300 -7116.585063 -1068.688436  6206.335916  5705.747179
0.032400 -1813.718628 -6976.432130 -3462.282398  4252.460304  6552.503686   781.010830
0.033600 -5728.280829 -5103.650517  1594.574553  6178.505203  3278.484054 -3486.810252
0.034800 -5980.332654 -1272.309012  4911.416402  5145.175577  -778.255419 -5765.665895
0.036000 -3859.293930  2756.669229  6169.319234  2083.479547 -4698.961394 -5809.185809
0.037200   286.744063  6151.303263  4454.077114 -2841.327100 -6707.591989 -2228.979452
0.038400  5118.179504  6106.310457  -570.662724 -6534.556797 -4287.705788  3285.159338
0.039600  6669.711858  1739.419391 -5246.912595 -5625.196693   905.360408  6170.371366
0.040800  3764.178863 -3162.832566 -6050.062513 -1531.009068  4692.755512  5093.866887
0.042000  -607.780668 -5443.718304 -3682.263532  2462.098499  5600.916537  1980.452029
0.043200 -4024.924474 -5161.248673   -58.748496  5128.780933  4143.839545 -1894.699841
0.044400 -5738.214185 -2602.000114  3843.041956  5653.966327   450.017586 -5393.989318
0.045600 -4597.485605  1925.546998  6135.656498  2760.086445 -4109.476859 -5915.459864
0.046800  -294.688875  5714.547577  4543.238544 -2283.124140 -6180.327740 -2394.642005
0.048000  4280.212267  5579.603410   -18.586828 -5502.280178 -4092.865489  2296.843033
0.049200  5668.298792  2078.385956 -3874.662977 -5001.688832  -129.756469  4797.158911
0.050400  3902.624290 -1659.847941 -5155.292838 -2435.511598  3165.946975  4962.605727
0.051600   833.379704 -4357.181043 -4373.432654   973.004386  5277.473995  3160.376119
0.052800 -2948.383590 -5539.102335 -1281.685392  4668.449799  4913.826125 -1001.386142
0.054000 -5788.409806 -3350.814860  3337.396070  5859.077396  1024.686062 -5076.312669
0.055200 -4785.620536  1452.991690  5787.854242  2886.776116 -3506.784550 -5434.116482
0.056400  -660.498212  4781.505236  4247.200469 -1398.528782 -5169.688813 -2621.391405
0.057600  2969.311102  4874.741055   938.509930 -4052.321703 -4162.230986   711.827138
0.058800  4731.632232  3052.554784 -2318.968882 -4929.266597 -1598.367815  3739.280505
0.060000  4632.122839  -165.457859 -4902.213017 -3659.127596  2192.367554  5408.140798
0.061200  1917.437566 -4008.878046 -5013.119574   220.998672  5250.658253  3762.492891
0.062400 -2473.469003 -5622.496199 -1716.603878  4286.094478  4876.171377  -552.737791
0.063600 -5208.257925 -3390.716701  2578.996349  5270.144367  1420.702031 -4065.656401
0.064800 -4426.889574   576.927540  4701.877736  3074.416751 -2176.024360 -4722.465218
0.066000 -1561.919758  3422.058231  4230.475657   -43.130589 -4209.863693 -3314.410802
0.067200  1537.715639  4592.788245  2146.430129 -2986.442824 -4589.973945  -553.818326
0.068400  4266.990832  3898.915590 -1324.876915 -5017.357725 -2532.437319  3189.697390
0.069600  5029.845447   552.655693 -4687.275054 -4055.940095  1686.114224  5293.104306
0.070800  2251.639568 -3564.622190 -4861.857308  -109.012847  4676.781321  3576.677231
0.072000 -1894.687475 -4875.252313 -1821.239797  3324.345868  4265.409266    59.577904
0.073200 -4059.728946 -3210.982389  1421.420335  4255.011795  1991.886463 -2618.685994
0.074400 -4080.240190  -646.522825  3574.111208  3524.184439  -783.978258 -4226.161246
0.075600 -2595.239426  2278.199611  4487.581375  1158.932744 -3719.966954 -4048.179845
0.076800   689.519824  4638.316046  2841.323758 -2531.218781 -4803.271474 -1063.678675
0.078000  4062.223066  4091.663523 -1019.357195 -4792.176138 -2551.340533  2794.478099
0.079200  4596.422438   716.958281 -3975.099115 -3694.619869  1117.882598  4429.731903
0.080400  2238.001940 -2575.601958 -4114.064533  -694.739744  3452.691086  3396.775720
0.081600  -724.121032 -3922.863302 -2369.783979  2007.212889  3926.915272  1140.293777
0.082800 -2998.785453 -3577.690635   150.508847  3791.056104  2871.132365 -1624.446837
0.084000 -4225.433497 -1646.231624  3033.195878  4048.909842    47.895809 -4115.601344
0.085200 -3218.631839  1763.907110  4617.343287  1674.251802 -3397.249547 -4198.429504
0.086400   261.247840  4360.887247  2985.369257 -2081.625289 -4486.097419 -1290.092021
0.087600  3420.542839  3788.700911  -477.527606 -4005.022827 -2554.996946  1899.259663
0.088800  3905.195255  1194.803685 -2841.153262 -3402.696142    69.662790  3403.387290
0.090000  2664.302835 -1235.468191 -3660.803768 -1722.415083  2308.764750  3633.332333
0.091200   570.312799 -3296.573854 -3231.115652   871.636221  4033.867937  2227.426960
0.092400 -2421.228237 -4130.507051  -687.614805  3686.600104  3500.340993 -1107.189502
0.093600 -4376.861444 -2128.664130  2798.821591  4157.240992   313.768942 -3831.319605
0.094800 -3166.071323  1374.968567  4129.405540  1752.301894 -2714.211849 -3721.251825
0.096000  -163.347382  3444.118703  2781.922651 -1154.244440 -3594.441025 -1712.451007
0.097200  2174.614196  3407.538731   545.202352 -2946.229418 -2873.119723   629.814146
0.098400  3373.128494  2099.848012 -1740.330207 -3564.403574 -1049.754350  2838.872039
0.099600  3299.113902  -333.492407 -3617.468713 -2470.963665  1782.391200  3911.031272
0.100800  1178.660740 -3100.553721 -3547.236690   487.866556  3933.407865  2429.162072
0.102000 -2110.457880 -3976.563317  -867.783068  3279.692683  3292.089250  -781.697043
0.103200 -3800.291189 -2039.958065  2161.506250  3573.881667   599.382184 -2972.465860
0.104400 -2830.667241   682.015983  3252.523982  1880.474622 -1682.080741 -3161.472636
0.105600  -867.499615  2419.276583  2810.218570  -143.204986 -2949.439142 -2258.577042
0.106800  1175.469277  3286.046846  1424.677440 -2287.852190 -3282.863746  -191.457865
0.108000  3237.250265  2684.568815 -1261.859788 -3710.927862 -1534.277785  2631.780614
