##TITLE=1D-13C-1-5-5-328-110-"no"-"yes"
##JCAMP-DX=5.01 $$ Magritek Spinsolve SPA1903 2.0.4.4423
##DATA TYPE=NMR FID
##DATA CLASS=NTUPLES
##ORIGIN=SPA1903 at Magritek
##OWNER=Copyright (C) 2025 by Magritek
##LONGDATE=2025/02/12 14:30:15.068
##.OBSERVE FREQUENCY=15.4861775226891
##.OBSERVE NUCLEUS=^13C
##.DELAY=( 20,  5000)
##.ACQUISITION MODE=SIMULTANEOUS
##.FIELD= 1.5
##.AVERAGES= 1
##.DIGITISER RES=16
##.SHIFT REFERENCE=(INTERNAL, Water, 4096, 0)
##$REFERENCE_POINT= 796.520    $$ Referencing label
$$      Distance of the zero axis position (in Hz) from the last data
$$      point (right edge); positive values -> right edge is below 0 Hz
##SPECTROMETER/DATA SYSTEM=Magritek
##SAMPLE DESCRIPTION=solvent=Water
$$ Bruker specific parameters
$$ --------------------------
##$AUNMP=   <proc_1d_nosref>
##$INSTRUM= <Magritek>
##$SI=      8192
##$TD=      8192
##$TDeff=   8192
##$SW=      322.868600
##$BF1=     15.4861775226891
##$SF=      15.4844740431616
##$LB=      0
##$PHC0=    217.4
##$PHC1=    0.0
##$REVERSE= yes
$$ End of Bruker specific parameters
$$ ---------------------------------
##NTUPLES=NMR FID
##VAR_NAME=        TIME,            FID/REAL,            FID/IMAG, PAGE NUMBER
##SYMBOL=             X,                   R,                   I,           N
##VAR_TYPE= INDEPENDENT,           DEPENDENT,           DEPENDENT,        PAGE
##VAR_FORM=        AFFN,                AFFN,                AFFN,        AFFN
##VAR_DIM=         8192,                8192,                8192,           2
##UNITS=        SECONDS,     ARBITRARY UNITS,     ARBITRARY UNITS,            
##FIRST=              0,                   0,                   0,           1
##LAST=    1.638199e+00,   0.018761292013454,  0.0149575217233259,           2
##MIN=                0,   -1173.70912121009,   -1126.78498247999,           1
##MAX=     1.638199e+00,    1119.98397732613,    1212.08690001698,           2
##FACTOR=             1,                   1,                   1,           1
##PAGE=N=1
##DATA TABLE=(X++(R..R)), XYDATA
0.000000     0.000000   494.209120  -878.120495 -1136.870801    33.958329  1119.983977
0.001200   826.316115  -475.212437 -1173.709121  -423.940742   827.058767  1038.031381
0.002400    -9.541757 -1018.431741  -783.812919   384.008502  1073.217058   465.815835
0.003600  -700.800494 -1012.868265  -100.460460   924.546667   834.714746  -261.827547
0.004800 -1049.643847  -570.468448   615.636344  1067.687619   211.112590  -921.094044
0.006000  -926.408124   213.765386  1101.437757   635.485176  -621.827951 -1124.271024
0.007200  -232.671213   948.612687   957.078822  -222.767074 -1125.489063  -627.610495
0.008400   642.376331  1104.036414   204.368262  -932.503074  -917.370106   223.196615
0.009600  1072.195985   599.267118  -593.198617 -1042.565316  -215.412083   854.791047
0.010800   876.944930  -155.050665  -988.682565  -624.340398   492.816193  1008.556976
0.012000   299.238056  -769.643642  -902.650174    57.978670   953.867793   698.717725
0.013200  -413.592446 -1038.257229  -392.119209   750.339444   978.476068    -4.101267
0.014400  -988.604126  -759.977514   410.933208  1085.471495   416.440623  -779.652686
0.015600 -1008.365367    24.219481  1014.709582   738.983698  -442.914143 -1062.069299
0.016800  -374.104146   763.388874   953.727533   -29.058431  -957.186801  -695.064987
0.018000   402.546360   983.485834   374.734098  -671.237723  -899.208470   -41.643765
0.019200   861.011463   717.025284  -293.103667  -946.404001  -457.189427   583.623081
0.020400   929.751678   146.595744  -829.109534  -804.368214   213.856600   984.902634
0.021600   545.889379  -573.053212  -993.636989  -188.617056   860.485713   851.391022
0.022800  -218.999926 -1020.781741  -556.274614   596.010077  1009.830065   172.106511
0.024000  -870.083161  -830.493965   230.844397   991.963555   530.012433  -573.283766
0.025200  -961.681330  -170.979921   812.473240   794.740612  -185.595658  -924.672249
0.026400  -537.412064   494.850358   919.096397   233.649308  -731.518634  -812.056138
0.027600    98.802007   891.639406   600.612423  -421.245918  -934.781609  -311.664901
0.028800   700.397612   869.449854   -36.103802  -910.041051  -664.618716   403.639892
0.030000   978.229386   345.505159  -717.777954  -900.659052    32.780780   933.539671
0.031200   674.887087  -423.291783  -982.592226  -328.297649   719.590049   867.469303
0.032400   -45.871682  -891.617893  -637.146679   395.181995   924.619909   316.590586
0.033600  -656.321583  -815.968766     3.277297   802.540547   631.049419  -299.273932
0.034800  -867.532391  -384.862926   561.575098   826.919599    95.595415  -754.121325
0.036000  -699.780069   210.566057   883.846091   479.980729  -528.947202  -900.517733
0.037200  -155.943267   794.207234   768.062933  -213.321607  -937.220786  -503.522150
0.038400   562.241603   931.890868   138.329656  -825.653761  -756.076888   246.644590
0.039600   929.843525   454.402061  -569.729388  -872.405363  -104.664061   777.301509
0.040800   694.570244  -227.051315  -851.940722  -434.392392   500.289138   811.191379
0.042000   146.065584  -680.175202  -682.653885   137.056615   791.005895   490.256540
0.043200  -405.372735  -811.314717  -233.260144   630.744284   736.115592   -55.720105
0.044400  -793.412694  -568.423402   365.948091   862.940191   290.879346  -648.643956
0.045600  -789.435295    43.094168   828.416162   595.239951  -380.669540  -889.815044
0.046800  -289.181288   673.368454   789.387296   -69.128392  -829.657188  -559.805717
0.048000   391.181544   850.655942   262.924669  -641.877774  -746.143913    62.817641
0.049200   770.609850   529.626654  -339.523266  -784.689258  -286.598127   552.255167
0.050400   722.372779    16.853553  -706.112450  -572.147547   249.578049   771.522554
0.051600   365.937618  -490.630564  -767.515959  -103.625586   704.465655   653.922538
0.052800  -209.368288  -826.198174  -426.176619   508.868148   825.502082   116.448828
0.054000  -745.020755  -684.895367   234.625103   859.489898   407.875757  -544.096489
0.055200  -812.605496   -77.073054   740.072652   636.758566  -245.601564  -809.674139
0.056400  -375.219662   503.431240   753.567416    86.524742  -666.244677  -601.487440
0.057600   178.633892   731.375837   404.835171  -407.345419  -727.494012  -171.017805
0.058800   594.529547   641.788234   -89.202436  -718.743970  -482.235758   349.689861
0.060000   768.924335   249.600933  -591.154385  -714.817244    52.501627   762.663734
0.061200   531.713851  -357.833628  -810.736273  -263.322136   617.339023   736.370295
0.062400   -62.183772  -783.752018  -526.863483   379.808302   799.738876   238.913821
0.063600  -607.932669  -703.577047    66.461143   744.228449   500.325687  -350.481516
0.064800  -752.613771  -234.777598   550.975372   664.202950   -21.719905  -677.147299
0.066000  -511.330039   273.767812   723.686549   291.136379  -489.871746  -676.577198
0.067200   -46.300280   646.371331   561.738676  -215.709639  -743.110477  -356.470719
0.068400   475.574542   729.081265    82.248227  -672.508168  -601.144531   216.277645
0.069600   771.788969   371.122533  -496.140030  -745.441490   -68.053790   687.741357
0.070800   582.570434  -233.438676  -750.100168  -339.053724   480.856946   698.184610
0.072000    62.565232  -634.052405  -548.193717   196.488624   687.007521   339.390902
0.073200  -406.940057  -657.017139  -117.830574   561.460745   563.769683  -116.411393
0.074400  -660.697165  -403.629472   347.636140   685.022927   189.480854  -544.000841
0.075600  -623.250633    66.660891   691.641873   466.449112  -347.100229  -734.849872
0.076800  -208.064739   578.104384   650.009198   -80.870297  -718.201257  -462.612459
0.078000   369.167964   734.201456   186.312091  -584.041797  -621.178832    98.440992
0.079200   685.491943   425.299408  -347.925897  -686.734998  -181.811520   535.097724
0.080400   585.356747   -69.294732  -624.812142  -423.595822   281.700313   643.412357
0.081600   229.205493  -464.653452  -599.027832    -4.066631   594.332482   470.960278
0.082800  -220.159929  -655.156621  -298.214776   436.285218   644.243862    56.444290
0.084000  -608.322587  -526.164406   209.086805   692.849292   325.253932  -449.871941
0.085200  -674.336627   -58.772647   630.875015   534.020078  -224.942101  -697.930815
0.086400  -304.318435   458.226297   647.370986    42.263927  -603.162880  -500.342854
0.087600   212.072174   652.691496   293.821713  -411.268574  -605.221293   -70.558419
0.088800   539.862955   492.139483  -143.362469  -603.471890  -339.559884   333.012923
0.090000   607.919744   148.234044  -500.005408  -547.949528    72.590597   615.254902
0.091200   413.607834  -307.668460  -663.002668  -196.698200   525.456405   600.605746
0.092400   -70.019608  -658.594232  -428.364349   338.290785   686.492703   179.511707
0.093600  -549.705836  -589.001091   104.343215   656.789535   388.424907  -345.137869
0.094800  -639.965431  -154.200341   507.904717   540.234482   -85.242537  -592.837899
0.096000  -373.269479   286.904251   586.494758   182.397547  -434.029821  -527.320648
0.097200    12.753925   541.101517   414.239074  -213.913001  -582.619911  -249.097543
0.098400   389.486219   566.561624    53.396409  -541.771857  -478.162572   183.360043
0.099600   628.493045   296.413816  -407.426168  -610.994954   -60.188464   572.028895
0.100800   499.597886  -197.680311  -648.837363  -288.134189   429.222110   608.001571
0.102000    34.450220  -573.264519  -466.878691   211.045147   620.652717   261.431786
0.103200  -407.104259  -563.992986   -34.408232   524.930965   435.077072  -174.287759
0.104400  -562.267527  -269.635123   341.659120   535.725848    85.771815  -469.814652
0.105600  -458.007079   107.459537   544.270412   324.712823  -293.245608  -564.023427
0.106800  -148.450653   461.744037   510.596109   -74.538059  -577.727738  -369.611782
0.108000   304.617772   603.903236   153.327577  -490.554476  -526.297530    93.106981
