##TITLE=1D-13C-1-2-5-328-110-"no"-"yes"
##JCAMP-DX=5.01 $$ Magritek Spinsolve SPA1903 2.0.4.4423
##DATA TYPE=NMR FID
##DATA CLASS=NTUPLES
##ORIGIN=SPA1903 at Magritek
##OWNER=Copyright (C) 2025 by Magritek
##LONGDATE=2025/03/17 11:58:03.672
##.OBSERVE FREQUENCY=15.4860999900848
##.OBSERVE NUCLEUS=^13C
##.DELAY=( 20,  2000)
##.ACQUISITION MODE=SIMULTANEOUS
##.FIELD= 1.5
##.AVERAGES= 1
##.DIGITISER RES=16
##.SHIFT REFERENCE=(INTERNAL, Water, 4096, 0)
##$REFERENCE_POINT= 796.529    $$ Referencing label
$$      Distance of the zero axis position (in Hz) from the last data
$$      point (right edge); positive values -> right edge is below 0 Hz
##SPECTROMETER/DATA SYSTEM=Magritek
##SAMPLE DESCRIPTION=solvent=Water
$$ Bruker specific parameters
$$ --------------------------
##$AUNMP=   <proc_1d_nosref>
##$INSTRUM= <Magritek>
##$SI=      8192
##$TD=      8192
##$TDeff=   8192
##$SW=      322.870200
##$BF1=     15.4860999900848
##$SF=      15.4843965190859
##$LB=      0
##$PHC0=    217.2
##$PHC1=    0.0
##$REVERSE= yes
$$ End of Bruker specific parameters
$$ ---------------------------------
##NTUPLES=NMR FID
##VAR_NAME=        TIME,            FID/REAL,            FID/IMAG, PAGE NUMBER
##SYMBOL=             X,                   R,                   I,           N
##VAR_TYPE= INDEPENDENT,           DEPENDENT,           DEPENDENT,        PAGE
##VAR_FORM=        AFFN,                AFFN,                AFFN,        AFFN
##VAR_DIM=         8192,                8192,                8192,           2
##UNITS=        SECONDS,     ARBITRARY UNITS,     ARBITRARY UNITS,            
##FIRST=              0,                   0,                   0,           1
##LAST=    1.638199e+00,   0.472914966582082,  -0.541610734772222,           2
##MIN=                0,   -7223.62122719447,   -6928.99546455016,           1
##MAX=     1.638199e+00,    6990.37277521457,    7519.88536877355,           2
##FACTOR=             1,                   1,                   1,           1
##PAGE=N=1
##DATA TABLE=(X++(R..R)), XYDATA
0.000000     0.000000  3008.468722 -5512.927064 -7004.833476   331.804205  6990.372775
0.001200  4992.577434 -3091.563720 -7223.621227 -2433.507567  5192.536586  6300.888232
0.002400  -227.529000 -6280.942138 -4659.544231  2495.446091  6539.821575  2697.987335
0.003600 -4350.489675 -6129.767522  -515.684850  5716.264394  5057.793878 -1723.020577
0.004800 -6495.841302 -3413.246034  3926.678856  6575.632800  1138.635957 -5821.390821
0.006000 -5662.912578  1532.107829  6921.351014  3758.522919 -4123.249703 -6934.087120
0.007200 -1121.516971  6130.385130  5747.711891 -1801.062079 -7071.085936 -3517.587900
0.008400  4354.332224  6741.587717   791.723791 -6024.826172 -5321.969506  1880.127378
0.009600  6639.178107  3197.131735 -4053.518158 -6205.085785  -795.400215  5431.776134
0.010800  4982.043574 -1428.834408 -6013.414374 -3325.287256  3332.179752  5936.536660
0.012000  1361.405495 -4849.778794 -5202.808474   732.383840  5825.924037  3904.356525
0.013200 -2833.334146 -6239.385780 -1998.871472  4828.239697  5782.010245  -442.312031
0.014400 -6200.671534 -4312.636596  2986.267828  6658.098576  2037.897121 -5194.853352
0.015600 -5945.633782   755.351498  6457.543270  4061.219354 -3327.930826 -6481.218038
0.016800 -1601.676872  5150.791782  5443.358485  -938.821323 -6007.613687 -3624.186362
0.018000  3058.522296  5849.646242  1553.368435 -4470.120847 -5033.062182   426.097524
0.019200  5317.539197  3789.782551 -2285.415119 -5600.667328 -2175.805182  3897.914858
0.020400  5326.222050   294.030738 -5223.465850 -4436.689947  1870.611156  6000.984459
0.021600  2744.881388 -3996.844193 -5865.421640  -439.464512  5619.597896  4730.947687
0.022800 -2091.179203 -6340.925939 -2674.497273  4333.851235  5910.356039   123.719750
0.024000 -5753.654969 -4431.203575  2328.588034  6094.864254  2320.318018 -4214.086029
0.025200 -5461.354433   -28.601044  5312.296492  4084.586794 -2043.674245 -5553.864606
0.026400 -2308.606429  3640.396623  5130.483897   452.294432 -4734.486395 -4203.258137
0.027600  1406.175218  5312.593840  2796.456705 -3122.823726 -5305.980002 -1060.679257
0.028800  4561.910591  4693.139820  -980.363867 -5573.442594 -3322.999371  3108.408773
0.030000  5758.030786  1274.950633 -4858.479021 -5016.786457  1108.816803  5914.318966
0.031200  3330.777312 -3430.400640 -5871.689804  -972.325252  5062.963449  4743.345398
0.032400 -1417.064437 -5719.563956 -2910.473619  3414.324125  5394.027555   737.078602
0.033600 -4657.092921 -4248.971392  1225.754482  5067.447722  2776.410570 -2787.176407
0.034800 -4931.126728 -1145.677625  3976.405187  4298.595704  -537.892282 -4735.530148
0.036000 -3270.989275  2191.441216  5105.324909  1812.273832 -3815.137537 -4853.654306
0.037200   134.640613  5064.316883  3762.557449 -2266.367439 -5566.839730 -1937.250341
0.038400  4171.130636  5097.330849  -370.896656 -5379.938740 -3636.265022  2623.513078
0.039600  5542.197697  1543.433524 -4286.858819 -4711.699098   656.467411  5086.864753
0.040800  3199.964665 -2525.194828 -5022.709003 -1369.166303  3823.535794  4280.087717
0.042000  -398.841022 -4489.167016 -3134.833014  1947.178437  4653.151542  1748.525285
0.043200 -3260.243624 -4343.303212  -167.401307  4233.473000  3536.087497 -1475.018592
0.044400 -4783.438237 -2273.984515  3115.561393  4756.144598   503.120701 -4449.766304
0.045600 -3921.919930  1501.581672  5122.478009  2402.972207 -3351.985363 -4972.544244
0.046800  -362.616941  4723.295084  3881.924956 -1794.019607 -5163.754996 -2102.325759
0.048000  3496.639853  4697.648107    95.083980 -4538.058283 -3494.738675  1794.904486
0.049200  4731.382056  1857.480275 -3149.170941 -4233.425775  -234.891607  3951.846368
0.050400  3347.645840 -1259.705074 -4299.854500 -2159.192599  2544.857543  4200.230646
0.051600   828.060687 -3602.429436 -3749.318968   697.590392  4414.424788  2768.149744
0.052800 -2373.338632 -4691.002321 -1203.796108  3862.423592  4203.685065  -729.251219
0.054000 -4836.960483 -2913.418016  2701.184075  4946.567402   983.165018 -4191.139912
0.055200 -4089.403612  1089.682351  4830.557092  2526.409164 -2835.508077 -4579.705442
0.056400  -688.786672  3925.964416  3644.479223 -1031.728493 -4316.514342 -2326.136760
0.057600  2389.533793  4128.116396   923.064814 -3339.988962 -3580.675630   467.361239
0.058800  3954.048624  2690.486260 -1832.257647 -4183.730348 -1479.831630  3083.848451
0.060000  3976.095475   -13.152239 -4101.853819 -3187.159143  1737.321739  4583.996526
0.061200  1753.640677 -3305.213634 -4299.455526    59.851040  4397.361743  3267.879290
0.062400 -1972.417642 -4753.343902 -1574.309810  3538.995659  4191.964735  -337.522586
0.063600 -4361.984364 -2949.320648  2063.400302  4450.989193  1329.578169 -3335.841928
0.064800 -3804.535637   340.382657  3936.950232  2711.519462 -1721.338013 -3998.570872
0.066000 -1456.474917  2800.880879  3647.495173   115.399550 -3523.858170 -2928.351590
0.067200  1185.670064  3919.778425  1955.611765 -2451.862885 -3957.346910  -607.423857
0.068400  3589.826155  3422.642929 -1008.654852 -4285.315250 -2270.284715  2640.292361
0.069600  4325.539356   591.899213 -3939.310157 -3537.445690  1314.763689  4500.096228
0.070800  2032.976334 -2933.625169 -4179.872986  -224.763796  3920.576767  3136.996751
0.072000 -1464.427300 -4139.398404 -1696.581623  2711.613856  3691.428437   212.826741
0.073200 -3397.631009 -2852.984493  1066.636701  3638.444696  1846.382289 -2127.220637
0.074400 -3549.158892  -714.023912  2995.867919  3126.487620  -535.306933 -3621.884704
0.075600 -2348.612551  1857.168959  3896.777853  1130.262419 -3126.467647 -3562.189178
0.076800   458.684713  3967.833899  2555.913745 -2077.093026 -4163.208039 -1046.309579
0.078000  3407.037064  3588.240055  -724.757466 -4089.473732 -2321.881763  2279.189454
0.079200  3974.350822   758.091015 -3328.686133 -3250.354883   800.801354  3767.222381
0.080400  2064.855034 -2080.534680 -3581.703803  -758.658982  2886.472524  3013.602072
0.081600  -463.901177 -3343.740860 -2181.154033  1593.358603  3431.432674  1154.880551
0.082800 -2507.045783 -3184.387105   -16.792009  3250.574448  2610.464567 -1272.842191
0.084000 -3688.800447 -1572.175663  2542.283263  3585.391814   176.083421 -3537.921875
0.085200 -2890.093686  1400.638443  3996.311026  1577.550466 -2841.516819 -3692.375063
0.086400    79.766509  3719.089563  2682.869443 -1671.364837 -3876.010318 -1255.157566
0.087600  2836.567919  3334.863934  -246.595974 -3400.685000 -2336.286202  1487.574925
0.088800  3397.115494  1206.766749 -2348.805915 -3021.356664  -106.965532  2896.635126
0.090000  2442.865964  -926.920631 -3202.045708 -1654.194040  1916.688376  3238.200813
0.091200   642.511732 -2833.229770 -2920.960449   635.390240  3514.364356  2065.416581
0.092400 -2012.515833 -3645.654341  -727.134105  3153.410601  3126.009237  -841.149604
0.093600 -3785.499753 -1972.464641  2310.747822  3653.779172   428.086891 -3260.937849
0.094800 -2845.935088  1051.179492  3566.288426  1656.309788 -2225.076670 -3283.098980
0.096000  -323.827707  2920.135998  2542.489741  -844.034054 -3123.871022 -1640.994437
0.097200  1768.157650  3029.604962   644.236539 -2505.335213 -2630.942590   398.187245
0.098400  2960.697846  1981.725048 -1416.753335 -3170.924518 -1070.196213  2420.974545
0.099600  2991.105382  -150.634705 -3171.111625 -2302.247135  1457.577742  3478.605006
0.100800  1172.896348 -2649.591480 -3184.993889   287.549927  3419.665364  2251.524686
0.102000 -1725.264605 -3511.805559  -906.717489  2787.105197  2958.794703  -533.596881
0.103200 -3279.122207 -1918.380917  1745.451705  3158.408993   700.756731 -2501.025103
0.104400 -2590.974974   415.665206  2825.115733  1808.516756 -1320.964596 -2825.457312
0.105600  -957.734688  2036.352103  2598.215528    50.035610 -2588.735832 -2143.399217
0.106800   915.841751  2950.640889  1415.355147 -1943.667757 -2986.371196  -314.669716
0.108000  2833.743871  2496.941284  -996.048542 -3302.127984 -1485.932515  2236.366332
