##TITLE=1D-13C-1-2-5-328-110-"no"-"yes"
##JCAMP-DX=5.01 $$ Magritek Spinsolve SPA1903 2.0.4.4423
##DATA TYPE=NMR FID
##DATA CLASS=NTUPLES
##ORIGIN=SPA1903 at Magritek
##OWNER=Copyright (C) 2025 by Magritek
##LONGDATE=2025/03/17 11:58:50.895
##.OBSERVE FREQUENCY=15.4860999900848
##.OBSERVE NUCLEUS=^13C
##.DELAY=( 20,  2000)
##.ACQUISITION MODE=SIMULTANEOUS
##.FIELD= 1.5
##.AVERAGES= 1
##.DIGITISER RES=16
##.SHIFT REFERENCE=(INTERNAL, Water, 4096, 0)
##$REFERENCE_POINT= 796.529    $$ Referencing label
$$      Distance of the zero axis position (in Hz) from the last data
$$      point (right edge); positive values -> right edge is below 0 Hz
##SPECTROMETER/DATA SYSTEM=Magritek
##SAMPLE DESCRIPTION=solvent=Water
$$ Bruker specific parameters
$$ --------------------------
##$AUNMP=   <proc_1d_nosref>
##$INSTRUM= <Magritek>
##$SI=      8192
##$TD=      8192
##$TDeff=   8192
##$SW=      322.870200
##$BF1=     15.4860999900848
##$SF=      15.4843965190859
##$LB=      0
##$PHC0=    217.2
##$PHC1=    0.0
##$REVERSE= yes
$$ End of Bruker specific parameters
$$ ---------------------------------
##NTUPLES=NMR FID
##VAR_NAME=        TIME,            FID/REAL,            FID/IMAG, PAGE NUMBER
##SYMBOL=             X,                   R,                   I,           N
##VAR_TYPE= INDEPENDENT,           DEPENDENT,           DEPENDENT,        PAGE
##VAR_FORM=        AFFN,                AFFN,                AFFN,        AFFN
##VAR_DIM=         8192,                8192,                8192,           2
##UNITS=        SECONDS,     ARBITRARY UNITS,     ARBITRARY UNITS,            
##FIRST=              0,                   0,                   0,           1
##LAST=    1.638199e+00, -0.0283694599224931,   0.328383471237434,           2
##MIN=                0,   -4833.20238866951,   -4684.62562522415,           1
##MAX=     1.638199e+00,    4675.51375643683,    5038.34053463402,           2
##FACTOR=             1,                   1,                   1,           1
##PAGE=N=1
##DATA TABLE=(X++(R..R)), XYDATA
0.000000     0.000000  2014.108008 -3677.668177 -4687.299850   218.953306  4675.513756
0.001200  3337.575875 -2073.718358 -4833.202389 -1624.173699  3473.195473  4210.186359
0.002400  -149.819229 -4203.263985 -3120.181565  1662.638931  4378.166879  1813.277012
0.003600 -2907.563305 -4104.282597  -358.905548  3822.227118  3405.659039 -1141.053322
0.004800 -4362.635461 -2307.485523  2619.671151  4425.453146   788.557430 -3899.353404
0.006000 -3832.094368  1004.445591  4665.805816  2564.261605 -2759.517378 -4694.349199
0.007200  -776.149435  4130.429354  3895.198303 -1192.692285 -4776.023701 -2405.099699
0.008400  2916.597059  4571.021955   556.169431 -4070.610736 -3616.618222  1252.148200
0.009600  4491.852961  2181.269137 -2723.208579 -4207.232215  -578.181781  3658.871042
0.010800  3388.871394  -937.086656 -4070.521139 -2277.934494  2238.550503  4031.714533
0.012000   963.805407 -3271.939997 -3562.427658   456.091014  3958.693319  2693.993515
0.013200 -1892.535707 -4253.905574 -1404.589738  3257.208703  3962.761055  -258.716546
0.014400 -4227.424291 -2984.218468  2003.658503  4548.891836  1428.763524 -3510.629840
0.015600 -4076.494731   469.054992  4403.976506  2814.032007 -2233.760709 -4434.563776
0.016800 -1140.951305  3496.229175  3741.791482  -596.335765 -4092.315893 -2517.087774
0.018000  2038.528558  3997.513606  1122.125532 -3027.236144 -3482.407079   236.490192
0.019200  3630.419409  2646.970001 -1509.816319 -3844.627719 -1557.555045  2631.544769
0.020400  3694.339037   265.386382 -3574.030004 -3089.856041  1231.655605  4131.288380
0.021600  1950.424205 -2700.475084 -4065.307630  -370.956569  3849.799071  3307.930737
0.022800 -1381.672760 -4369.417740 -1902.903182  2940.834944  4095.778692   154.271639
0.024000 -3936.020652 -3103.178719  1537.904079  4204.190217  1665.540368 -2851.733706
0.025200 -3795.546198   -99.067585  3624.277072  2867.389001 -1334.464475 -3838.763193
0.026400 -1670.440123  2450.759678  3570.288317   399.384373 -3237.366214 -2961.687731
0.027600   896.156585  3675.829116  2024.342727 -2097.151103 -3710.016935  -818.820140
0.028800  3128.086918  3310.800671  -599.367731 -3855.221863 -2378.063654  2092.536188
0.030000  4027.301307   972.369775 -3338.110663 -3538.533372   689.674245  4094.431678
0.031200  2380.843646 -2316.191116 -4100.410584  -759.955115  3475.831485  3346.966095
0.032400  -904.857604 -3965.792853 -2095.774261  2300.510602  3770.643980   614.712805
0.033600 -3177.450680 -3023.735191   750.580093  3525.140143  2026.427362 -1859.386549
0.034800 -3459.860298  -908.202489  2717.806820  3065.016297  -271.094776 -3303.771654
0.036000 -2390.277223  1454.055159  3605.115554  1366.269984 -2621.093520 -3459.726944
0.037200     0.618622  3532.708299  2725.065060 -1507.068859 -3921.377083 -1446.738044
0.038400  2872.722936  3623.081070  -164.587256 -3744.687133 -2635.190486  1746.366693
0.039600  3897.113266  1187.926228 -2936.580433 -3363.551982   342.886109  3539.160504
0.040800  2334.713607 -1670.890062 -3544.674768 -1089.744633  2611.943972  3078.283869
0.042000  -153.763257 -3134.128964 -2308.737362  1269.188920  3302.185306  1362.198217
0.043200 -2224.791794 -3136.211837  -248.084709  2961.750566  2597.851264  -941.360996
0.044400 -3404.603800 -1724.721737  2131.920355  3425.290665   470.136389 -3117.002014
0.045600 -2877.370754   954.036255  3648.125632  1816.141096 -2300.951632 -3574.194273
0.046800  -376.564936  3295.682845  2836.101602 -1154.340841 -3667.937999 -1606.300665
0.048000  2388.075798  3374.803137   194.013905 -3159.774158 -2570.273320  1140.094211
0.049200  3354.955389  1452.244133 -2129.887487 -3060.390848  -311.516521  2752.207932
0.050400  2485.761438  -754.410153 -3060.016441 -1679.059593  1710.779020  3060.987201
0.051600   734.707149 -2523.724526 -2776.875962   375.726706  3159.174229  2099.039419
0.052800 -1605.375293 -3396.217579  -985.770079  2710.342074  3087.649102  -409.795061
0.054000 -3441.697401 -2191.205677  1828.279921  3567.442282   828.941731 -2922.789665
0.055200 -2995.488794   644.984700  3420.475228  1927.253772 -1903.075160 -3307.058353
0.056400  -641.902583  2721.220231  2690.556783  -585.048729 -3062.298426 -1802.801625
0.057600  1576.590530  3003.090602   822.107595 -2313.785582 -2662.633318   181.905165
0.058800  2816.824952  2065.454681 -1199.875354 -3053.403532 -1215.300806  2151.267923
0.060000  2947.678785   127.142573 -2926.957833 -2411.723905  1133.622376  3327.360889
0.061200  1391.229699 -2308.036533 -3167.702358   -82.506842  3131.807716  2458.349572
0.062400 -1297.846676 -3437.829003 -1271.134529  2451.438495  3082.127133   -98.046938
0.063600 -3102.218101 -2239.406690  1355.251723  3207.159085  1109.902778 -2287.628133
0.064800 -2818.686104    75.443222  2788.763941  2086.629587 -1093.429516 -2904.284620
0.066000 -1222.074941  1913.677944  2723.033562   250.308971 -2510.912560 -2262.664502
0.067200   707.535772  2870.372438  1572.988200 -1685.257129 -2948.842926  -587.961912
0.068400  2566.492158  2601.476572  -603.705811 -3126.377953 -1789.978295  1822.185027
0.069600  3198.955254   566.346447 -2803.578062 -2667.454026   813.918024  3260.720964
0.070800  1620.206729 -2007.358242 -3080.891162  -326.198597  2774.009064  2388.761980
0.072000  -903.873612 -2989.361684 -1393.331277  1833.132530  2756.562446   350.582568
0.073200 -2396.399723 -2214.051589   600.472246  2657.213971  1521.940086 -1426.727502
0.074400 -2671.844004  -707.042631  2130.463782  2422.237175  -232.576634 -2665.428879
0.075600 -1875.149280  1252.753592  2914.845936   984.381199 -2231.348768 -2717.639438
0.076800   188.104709  2896.838356  2015.548661 -1396.278571 -3089.568068  -921.129653
0.078000  2412.294859  2722.463456  -367.261838 -2964.487440 -1843.077921  1526.291848
0.079200  2955.451154   731.599514 -2340.433978 -2486.655353   400.336519  2723.313514
0.080400  1678.340243 -1363.663449 -2675.222212  -752.397103  2020.604413  2333.818481
0.081600  -155.188017 -2434.950319 -1772.247960  1016.741336  2577.855085  1035.837720
0.082800 -1767.878381 -2471.484896  -179.435441  2388.669499  2080.508178  -805.964296
0.084000 -2764.312221 -1330.382508  1794.792680  2752.768543   287.702573 -2582.951426
0.085200 -2258.294805   911.113474  2968.107215  1313.479659 -1996.319801 -2804.355997
0.086400  -104.755314  2691.865340  2106.069509 -1072.330058 -2862.849815 -1095.541888
0.087600  1964.467587  2536.942764    13.908237 -2443.708593 -1877.595055   915.017622
0.088800  2525.903245  1084.325090 -1607.702674 -2341.813011  -284.752353  2098.034789
0.090000  1970.112574  -524.339347 -2415.150573 -1416.888557  1322.555631  2511.431534
0.091200   651.680412 -2070.153876 -2305.270857   337.369452  2632.882439  1688.973587
0.092400 -1402.459594 -2786.876000  -689.144033  2295.092225  2428.278664  -484.122872
0.093600 -2795.352304 -1608.208833  1587.542698  2767.312732   491.860172 -2340.961771
0.094800 -2232.022765   606.801768  2631.650836  1400.894687 -1499.464100 -2501.302209
0.096000  -444.435199  2082.569361  2030.004266  -436.578990 -2327.284724 -1410.443457
0.097200  1181.643902  2338.022806   684.714565 -1794.193378 -2112.752263   118.498698
0.098400  2223.414168  1659.959645  -937.558932 -2451.715921  -979.211210  1751.622666
0.099600  2367.971310    42.341571 -2381.994979 -1874.258585   979.553503  2661.136195
0.100800  1035.193380 -1910.631828 -2486.696469    57.060124  2533.007488  1827.843054
0.102000 -1152.383324 -2662.432325  -845.180085  1983.042082  2312.830136  -207.647464
0.103200 -2411.774460 -1602.402596  1130.234328  2401.245128   736.123736 -1755.719218
0.104400 -2067.399539    93.816987  2087.400903  1551.332375  -818.298144 -2191.128091
0.105600  -945.574003  1434.713284  2108.259855   242.579844 -1947.690904 -1815.050627
0.106800   546.809035  2301.807385  1255.791384 -1389.039376 -2376.184012  -407.160238
0.108000  2125.752810  2035.240190  -617.321341 -2531.877130 -1289.524870  1589.564217
