##TITLE=1D-13C-1-2-5-328-110-"no"-"yes"
##JCAMP-DX=5.01 $$ Magritek Spinsolve SPA1903 2.0.4.4423
##DATA TYPE=NMR FID
##DATA CLASS=NTUPLES
##ORIGIN=SPA1903 at Magritek
##OWNER=Copyright (C) 2025 by Magritek
##LONGDATE=2025/03/17 11:57:43.600
##.OBSERVE FREQUENCY=15.4860999900848
##.OBSERVE NUCLEUS=^13C
##.DELAY=( 20,  2000)
##.ACQUISITION MODE=SIMULTANEOUS
##.FIELD= 1.5
##.AVERAGES= 1
##.DIGITISER RES=16
##.SHIFT REFERENCE=(INTERNAL, Water, 4096, 0)
##$REFERENCE_POINT= 796.529    $$ Referencing label
$$      Distance of the zero axis position (in Hz) from the last data
$$      point (right edge); positive values -> right edge is below 0 Hz
##SPECTROMETER/DATA SYSTEM=Magritek
##SAMPLE DESCRIPTION=solvent=Water
$$ Bruker specific parameters
$$ --------------------------
##$AUNMP=   <proc_1d_nosref>
##$INSTRUM= <Magritek>
##$SI=      8192
##$TD=      8192
##$TDeff=   8192
##$SW=      322.870200
##$BF1=     15.4860999900848
##$SF=      15.4843965190859
##$LB=      0
##$PHC0=    217.4
##$PHC1=    0.0
##$REVERSE= yes
$$ End of Bruker specific parameters
$$ ---------------------------------
##NTUPLES=NMR FID
##VAR_NAME=        TIME,            FID/REAL,            FID/IMAG, PAGE NUMBER
##SYMBOL=             X,                   R,                   I,           N
##VAR_TYPE= INDEPENDENT,           DEPENDENT,           DEPENDENT,        PAGE
##VAR_FORM=        AFFN,                AFFN,                AFFN,        AFFN
##VAR_DIM=         8192,                8192,                8192,           2
##UNITS=        SECONDS,     ARBITRARY UNITS,     ARBITRARY UNITS,            
##FIRST=              0,                   0,                   0,           1
##LAST=    1.638199e+00,   0.575197400911609,   -0.85731959889456,           2
##MIN=                0,   -8650.31900469711,   -8223.59312798336,           1
##MAX=     1.638199e+00,    8351.24562847563,    8982.41501444997,           2
##FACTOR=             1,                   1,                   1,           1
##PAGE=N=1
##DATA TABLE=(X++(R..R)), XYDATA
0.000000     0.000000  3586.297179 -6601.503838 -8363.885240   406.109006  8351.245628
0.001200  5971.113256 -3704.306786 -8650.319005 -2904.764114  6229.738566  7529.229213
0.002400  -294.558043 -7517.831804 -5558.053845  2991.414890  7824.832970  3216.085224
0.003600 -5226.324308 -7312.008597  -573.084359  6848.304296  6011.844350 -2091.694117
0.004800 -7749.522805 -4043.457778  4710.061354  7828.734927  1307.038693 -6948.746162
0.006000 -6717.659193  1867.873910  8234.047399  4431.974815 -4933.578461 -8242.622917
0.007200 -1291.800387  7308.662333  6812.396986 -2168.863153 -8415.292787 -4157.720815
0.008400  5203.311646  8001.162905   901.642628 -7175.348575 -6316.338756  2261.924213
0.009600  7904.861861  3771.679805 -4865.639511 -7378.800267  -905.698571  6485.260684
0.010800  5893.906523 -1750.893999 -7156.675589 -3908.501763  4019.451420  7052.976053
0.012000  1548.815113 -5798.657246 -6128.136816   933.401493  6921.789011  4574.550344
0.013200 -3406.474996 -7382.135147 -2308.646658  5751.122340  6802.346004  -603.021776
0.014400 -7351.776846 -5043.177962  3570.974563  7867.111483  2365.765553 -6177.577581
0.015600 -7006.932937   954.261065  7659.681395  4747.792342 -3988.285454 -7651.675173
0.016800 -1845.888141  6128.138091  6429.956386 -1168.077147 -7144.865465 -4234.814536
0.018000  3696.201560  6904.347979  1765.336323 -5332.167420 -5931.632528   576.646980
0.019200  6320.581924  4419.516808 -2789.802224 -6608.481989 -2479.911794  4650.467525
0.020400  6245.460178   260.138820 -6185.688082 -5162.536303  2281.104541  7070.807728
0.021600  3151.898461 -4767.499170 -6876.089457  -442.706262  6636.676283  5512.910795
0.022800 -2528.826537 -7468.848517 -3083.005395  5154.907424  6930.291156    63.653538
0.024000 -6803.676108 -5160.453155  2808.004139  7179.534710  2668.912773 -5017.999609
0.025200 -6412.941837    44.957723  6300.311133  4751.566103 -2498.352484 -6548.736996
0.026400 -2641.277822  4348.962044  6016.182952   448.790681 -5616.353837 -4879.359407
0.027600  1759.119169  6258.539441  3186.175187 -3740.207247 -6184.731503 -1148.719979
0.028800  5395.664813  5454.673869 -1246.652632 -6550.088679 -3801.683866  3715.269609
0.030000  6704.608602  1399.942863 -5723.210002 -5825.217321  1361.719423  6943.404117
0.031200  3836.633181 -4092.147177 -6858.252982 -1046.256518  5972.601056  5507.685903
0.032400 -1731.972326 -6727.221047 -3345.961965  4087.640799  6316.588221   763.161002
0.033600 -5514.750373 -4928.365972  1532.280623  5958.441273  3165.253905 -3348.856121
0.034800 -5761.891006 -1233.394353  4719.106394  4955.589353  -740.103027 -5552.442156
0.036000 -3726.333588  2637.782869  5935.149245  2017.548177 -4511.431922 -5603.868160
0.037200   252.763144  5919.495176  4309.517779 -2715.706810 -6468.863741 -2175.197999
0.038400  4911.196217  5896.787656  -521.241231 -6291.810605 -4167.440708  3145.680594
0.039600  6455.946285  1710.592011 -5053.881009 -5446.065082   856.934246  5958.027781
0.040800  3657.040936 -3034.571279 -5846.567845 -1500.966454  4524.696127  4933.107297
0.042000  -578.855504 -5255.703672 -3565.430231  2367.646663  5413.049007  1930.925081
0.043200 -3873.264463 -4996.376612   -73.277111  4952.727337  4009.759756 -1813.956086
0.044400 -5531.152050 -2534.082842  3683.180879  5468.523142   467.169971 -5191.813507
0.045600 -4457.616143  1824.444395  5916.904909  2695.634965 -3945.391631 -5736.866059
0.046800  -326.378374  5513.163013  4423.656550 -2166.499290 -5981.747385 -2346.005017
0.048000  4121.266696  5412.661107     9.693561 -5315.284977 -3980.773785  2198.862890
0.049200  5492.528930  2028.926866 -3737.541915 -4852.596347  -154.349638  4632.325453
0.050400  3792.440743 -1585.157049 -4983.665337 -2375.986151  3038.594196  4798.181743
0.051600   826.295719 -4201.030660 -4240.062430   913.517984  5094.518061  3076.052584
0.052800 -2822.324438 -5356.136210 -1276.809671  4492.324823  4771.495491  -934.101818
0.054000 -5581.117316 -3271.442963  3193.895751  5682.698487  1029.703071 -4892.618293
0.055200 -4651.711711  1370.812901  5595.238427  2824.329899 -3366.614678 -5272.222968
0.056400  -671.312959  4614.192023  4136.263722 -1326.838538 -5008.433720 -2569.696333
0.057600  2856.440148  4728.804756   937.144274 -3904.479043 -4042.727010   666.804441
0.058800  4574.652433  2973.701734 -2225.884341 -4770.287115 -1566.856321  3601.119762
0.060000  4490.409213  -131.530630 -4727.791626 -3557.119168  2094.000748  5240.455036
0.061200  1887.746611 -3850.770789 -4863.667630   169.431019  5073.461817  3673.599309
0.062400 -2363.866587 -5447.195523 -1692.834056  4132.915673  4747.438469  -502.766361
0.063600 -5043.234399 -3312.666932  2472.541636  5124.523206  1413.710061 -3931.193453
0.064800 -4314.520848   527.336518  4554.051869  3001.864354 -2089.938069 -4579.182910
0.066000 -1542.524475  3297.747090  4109.598434   -17.246951 -4078.496902 -3236.811137
0.067200  1464.953738  4451.318669  2104.848271 -2876.389511 -4448.784514  -570.878004
0.068400  4119.654153  3800.359461 -1257.631461 -4863.413516 -2479.280114  3073.464567
0.069600  4887.411362   572.148648 -4535.894039 -3960.603038  1597.953299  5137.127508
0.070800  2219.462208 -3439.734657 -4733.635986  -135.929677  4530.432351  3497.849325
0.072000 -1803.337746 -4734.971614 -1806.989875  3202.845519  4162.690833    86.972743
0.073200 -3939.054371 -3138.607791  1352.039991  4133.511021  1963.635176 -2525.400334
0.074400 -3973.797672  -652.469955  3461.189508  3438.062435  -738.732603 -4096.394094
0.075600 -2538.227916  2194.849801  4364.399619  1149.532168 -3601.064661 -3948.569108
0.076800   641.336083  4494.177676  2786.175995 -2432.460383 -4679.304955 -1072.916637
0.078000  3927.734315  4003.471289  -958.293487 -4661.339932 -2513.986178  2690.722858
0.079200  4477.417216   733.416009 -3853.236460 -3625.891299  1052.191322  4312.015696
0.080400  2209.164561 -2490.708197 -4022.261718  -708.572692  3351.269785  3327.828294
0.081600  -679.597639 -3816.893740 -2331.122646  1938.748679  3833.240736  1134.347553
0.082800 -2909.420289 -3501.724399   122.071961  3685.556255  2823.995612 -1552.422056
0.084000 -4118.710867 -1637.942380  2935.001623  3963.949133    76.117371 -4003.705254
0.085200 -3159.245587  1688.027592  4492.611847  1664.453626 -3282.978695 -4114.116390
0.086400   221.343863  4245.825594  2934.538787 -2002.535008 -4376.035929 -1286.152121
0.087600  3314.778171  3707.379462  -437.590368 -3900.063226 -2521.099162  1829.677635
0.088800  3819.466240  1196.096968 -2754.728756 -3331.695117    39.719935  3312.048631
0.090000  2619.338789 -1190.419519 -3579.223719 -1702.621344  2239.220156  3557.217694
0.091200   585.547078 -3210.669383 -3173.235380   825.624046  3937.850356  2194.476667
0.092400 -2348.500670 -4037.200360  -693.947257  3583.522444  3434.158280 -1054.703995
0.093600 -4271.326187 -2108.894944  2704.825847  4072.081763   342.813900 -3730.370578
0.094800 -3115.698256  1309.186775  4030.617428  1747.058664 -2628.630952 -3654.035016
0.096000  -193.828266  3360.701614  2745.656294 -1102.034981 -3512.969332 -1697.217602
0.097200  2112.051149  3352.792525   554.751141 -2878.338499 -2832.782028   594.162593
0.098400  3302.950609  2073.949421 -1689.991623 -3491.817244 -1050.216624  2768.803002
0.099600  3247.695290  -305.170549 -3544.307217 -2448.133365  1720.681691  3836.144937
0.100800  1182.586118 -3021.024288 -3492.525973   444.730131  3845.820616  2414.270969
0.102000 -2037.540315 -3908.150110  -880.754164  3202.479777  3242.215578  -737.232800
0.103200 -3714.528040 -2035.725442  2087.966706  3519.860076   625.251057 -2903.592141
0.104400 -2801.812151   638.481943  3189.171309  1870.552985 -1624.979833 -3113.470896
0.105600  -890.145264  2362.829846  2784.598645  -112.173555 -2890.718014 -2241.894480
0.106800  1131.755668  3237.969559  1436.824219 -2227.923542 -3246.052352  -215.164668
0.108000  3172.900034  2653.990785 -1213.130089 -3641.696229 -1540.673679  2560.956413
