##TITLE=1D-13C-256-2-90-328-110-"no"-"yes"
##JCAMP-DX=5.01 $$ Magritek Spinsolve SPA1903 2.0.4.4423
##DATA TYPE=NMR FID
##DATA CLASS=NTUPLES
##ORIGIN=SPA1903 at Magritek
##OWNER=Copyright (C) 2025 by Magritek
##LONGDATE=2025/02/12 14:34:07.504
##.OBSERVE FREQUENCY=15.4861775226891
##.OBSERVE NUCLEUS=^13C
##.DELAY=( 20,  2000)
##.ACQUISITION MODE=SIMULTANEOUS
##.FIELD= 1.5
##.AVERAGES= 256
##.DIGITISER RES=16
##.SHIFT REFERENCE=(INTERNAL, Water, 4096, 0)
##$REFERENCE_POINT= 796.520    $$ Referencing label
$$      Distance of the zero axis position (in Hz) from the last data
$$      point (right edge); positive values -> right edge is below 0 Hz
##SPECTROMETER/DATA SYSTEM=Magritek
##SAMPLE DESCRIPTION=solvent=Water
$$ Bruker specific parameters
$$ --------------------------
##$AUNMP=   <proc_1d_nosref>
##$INSTRUM= <Magritek>
##$SI=      8192
##$TD=      8192
##$TDeff=   8192
##$SW=      322.868600
##$BF1=     15.4861775226891
##$SF=      15.4844740431616
##$LB=      0
##$PHC0=    219.7
##$PHC1=    0.0
##$REVERSE= yes
$$ End of Bruker specific parameters
$$ ---------------------------------
##NTUPLES=NMR FID
##VAR_NAME=        TIME,            FID/REAL,            FID/IMAG, PAGE NUMBER
##SYMBOL=             X,                   R,                   I,           N
##VAR_TYPE= INDEPENDENT,           DEPENDENT,           DEPENDENT,        PAGE
##VAR_FORM=        AFFN,                AFFN,                AFFN,        AFFN
##VAR_DIM=         8192,                8192,                8192,           2
##UNITS=        SECONDS,     ARBITRARY UNITS,     ARBITRARY UNITS,            
##FIRST=              0,                   0,                   0,           1
##LAST=    1.638199e+00,-6.9396696609528e-03,5.02380020820327e-04,           2
##MIN=                0,   -5.45020486863586,   -5.78955471903736,           1
##MAX=     1.638199e+00,    5.71533748212537,    5.33949935123776,           2
##FACTOR=             1,                   1,                   1,           1
##PAGE=N=1
##DATA TABLE=(X++(R..R)), XYDATA
0.000000     0.000000     0.000000    -4.451839    -5.102357     0.807995     4.949605
0.001200     3.521233    -2.332285    -5.321411    -1.741477     2.196334     4.481075
0.002400     1.468231    -3.803865    -3.420895    -0.464677     3.642520     1.189388
0.003600    -1.883785    -3.293676    -0.440206     4.586213     4.393072    -0.603079
0.004800    -3.990249    -1.969742     1.538536     5.715337     3.294691    -2.479403
0.006000    -3.993504    -0.388933     4.052416     3.783768     0.096512    -3.217170
0.007200    -3.118952     1.568669     4.810273     0.922011    -3.552058    -3.681586
0.008400    -0.276200     4.597789     4.180072    -1.801605    -4.581387    -2.110443
0.009600     3.147689     3.262705    -1.592115    -4.926543    -2.719007     1.254478
0.010800     4.024110     1.617425    -2.902429    -4.297238    -0.508502     3.675445
0.012000     4.443342    -0.356097    -5.450205    -2.205776     2.023249     3.987169
0.013200     1.470969    -3.563666    -4.765280    -0.880972     2.862555     4.075865
0.014400    -1.072584    -5.431063    -2.227231     2.567020     4.389698    -0.154598
0.015600    -4.431279    -3.789781    -0.064055     3.803512     2.812515    -3.091496
0.016800    -4.102816    -0.215868     3.722380     3.051018    -0.302916    -4.281066
0.018000    -2.695417     1.836568     4.000762     1.304109    -2.376885    -4.218755
0.019200    -0.401966     3.975164     3.860583    -0.363763    -4.136602    -2.593754
0.020400     2.662358     3.594686     0.775765    -3.722884    -3.955629     1.823332
0.021600     4.414659     2.995040    -2.814272    -5.275303    -2.284403     3.206728
0.022800     4.421170     1.775476    -3.288576    -3.641448     1.497364     4.784938
0.024000     1.400478    -3.771497    -3.469638    -0.076081     2.175762     2.066679
0.025200    -0.181497    -4.599547    -2.629266     2.938175     2.782783     1.319302
0.026400    -1.531253    -3.716898     0.869462     4.977318     2.482178    -1.206082
0.027600    -3.229604    -1.684988     3.257262     3.762591     0.358013    -4.297168
0.028800    -3.574877     0.611119     3.138559     3.339421    -1.497523    -3.507871
0.030000    -0.898635     2.544937     3.345321    -1.237384    -3.512657    -3.378786
0.031200     0.839079     3.240576    -0.357511    -4.015107    -4.763985    -0.848418
0.032400     4.788336     3.050299    -3.697978    -2.814634    -0.383481     1.088120
0.033600     4.004622    -0.863364    -4.128576    -3.967722    -1.649071     4.121597
0.034800     3.318381    -1.359192    -2.391593    -0.007042     2.441093     2.890443
0.036000     0.718057    -3.358157    -3.442624     2.040588     4.362398     2.996136
0.037200    -2.167705    -5.042116    -0.998364     4.484416     4.070165    -1.791961
0.038400    -4.945038    -2.335603     2.270609     3.204360     0.154868    -3.000305
0.039600    -2.605068     1.019301     4.150000     2.459790    -2.305975    -3.872390
0.040800    -1.086655     1.851007     2.942270     0.218757    -2.410264    -1.554437
0.042000     0.893017     2.179737     1.853996    -0.821313    -4.105013    -1.363346
0.043200     3.548174     3.287815     0.196096    -3.761441    -2.880829     2.223877
0.044400     4.408087     1.450174    -2.752058    -2.969442     0.490538     3.574903
0.045600     3.407445    -1.647541    -2.754614    -0.636916     1.488694     3.588907
0.046800     0.789029    -2.503148    -3.485693     1.181144     3.306775     0.823072
0.048000    -0.977304    -2.819521    -0.703251     2.746008     3.113656    -0.421361
0.049200    -2.938707    -1.900722     1.675625     3.402746     2.441951    -1.158962
0.050400    -2.822706    -0.291827     1.806765     2.601698    -0.407568    -2.651951
0.051600    -1.832655     2.026828     4.081780     0.142527    -2.600016    -2.254207
0.052800     1.448609     3.531977     1.703376    -1.824373    -3.412757    -2.005927
0.054000     2.679735     3.468645     0.438982    -3.539811    -2.777429     0.933613
0.055200     3.062905     1.726915    -3.134565    -4.510342    -0.310688     3.814361
0.056400     1.715279    -0.367716    -3.671414    -1.524622     2.840428     2.323614
0.057600     1.148708    -1.571689    -2.799870     0.102886     2.636224     3.315138
0.058800    -0.463291    -3.764310    -1.636586     2.712057     4.512329     0.113103
0.060000    -2.854582    -1.896657     0.996574     3.450591     3.414016    -1.199088
0.061200    -2.927008    -0.103739     3.404791     3.045870    -1.013529    -2.998179
0.062400    -2.055259     1.242446     3.059822     2.247659    -2.447961    -3.919536
0.063600     0.588774     3.684413     2.369924    -1.411739    -2.575119    -0.990037
0.064800     1.289968     1.538194     0.753947    -2.525466    -2.988027     0.749320
0.066000     1.805812     2.823228    -0.287149    -2.620933    -1.139654     2.120776
0.067200     3.082632    -0.035377    -3.725810    -3.564218     0.433635     2.659181
0.068400     0.847100    -3.209186    -3.976364    -0.616802     2.237376     1.172715
0.069600    -0.917662    -2.700356    -1.379400     1.890339     3.532687     0.536583
0.070800    -2.666069    -2.572999    -0.246919     3.372584     2.664978    -1.238763
0.072000    -3.175290    -1.943847     1.973646     2.556504     1.152223    -1.732000
0.073200    -1.666157     0.700218     1.648928    -0.248111    -2.343731    -2.686899
0.074400    -0.518149     2.941757     2.077175    -0.732685    -2.277637    -2.172675
0.075600     1.340473     3.328375     1.256424    -1.552057    -2.624977     0.177703
0.076800     3.381442     1.910534    -1.483500    -4.074971    -1.886986     2.743348
0.078000     3.587667     0.709762    -3.306815    -1.704968     1.764417     2.455374
0.079200     1.374505    -1.640893    -2.616686    -0.850479     1.714851     1.466041
0.080400    -1.172131    -2.805256    -1.627994     1.611666     3.940656     1.031742
0.081600    -2.303206    -2.402674    -1.260737     2.425794     1.890700    -0.081643
0.082800    -2.296760    -2.276295     1.620591     2.823611     1.390518    -1.137839
0.084000    -2.327755     0.041309     3.089636     1.976542    -2.569831    -2.987763
0.085200    -1.807987     2.008399     2.004526    -0.520235    -2.333688    -1.277668
0.086400     1.056427     2.252821     1.347874    -2.099869    -3.271083     0.109033
0.087600     3.155899     3.474746    -0.742064    -3.354753    -2.189687     0.592903
0.088800     2.341897     1.960639    -1.789612    -2.805298     0.085718     2.123159
0.090000     2.651010    -0.595008    -3.007092    -1.532681     2.136690     3.404268
0.091200     0.951800    -3.249133    -2.443837     0.073843     1.557648     1.416912
0.092400    -2.038291    -2.559718    -0.202934     2.860214     2.857513     0.326079
0.093600    -2.358417    -1.794081     0.388097     2.895147     1.161508    -2.157874
0.094800    -2.306312    -0.585471     1.872102     1.967158    -1.506555    -2.610219
0.096000    -1.448417     0.855862     2.769129     0.823309    -1.921490    -2.634342
0.097200    -0.600002     2.345871     1.518616    -0.935316    -2.768503    -1.457865
0.098400     2.199289     2.573990     0.405582    -3.144881    -2.606495     1.370656
0.099600     2.660660     1.129801    -1.509487    -3.243256     0.596676     2.929899
0.100800     2.323895    -0.305700    -2.255983    -0.422239     1.701133     2.864262
0.102000     0.789167    -2.707894    -2.495415     0.357981     1.872689     0.354017
0.103200    -2.005047    -2.421500    -0.686754     1.538299     1.595717     0.465716
0.104400    -1.359490    -0.940387     1.352836     2.367881     2.007127    -1.453560
0.105600    -3.014026    -0.550494     2.196021     2.377997     0.630109    -3.230688
0.106800    -2.436820     0.797200     2.394725     0.462274    -2.291940    -2.903494
0.108000     0.036405     3.160349     2.315027    -0.124374    -2.861807    -1.012171
