##TITLE=1D-13C-1-2-5-328-110-"no"-"yes"
##JCAMP-DX=5.01 $$ Magritek Spinsolve SPA1903 2.0.4.4423
##DATA TYPE=NMR FID
##DATA CLASS=NTUPLES
##ORIGIN=SPA1903 at Magritek
##OWNER=Copyright (C) 2025 by Magritek
##LONGDATE=2025/03/17 11:58:07.092
##.OBSERVE FREQUENCY=15.4860999900848
##.OBSERVE NUCLEUS=^13C
##.DELAY=( 20,  2000)
##.ACQUISITION MODE=SIMULTANEOUS
##.FIELD= 1.5
##.AVERAGES= 1
##.DIGITISER RES=16
##.SHIFT REFERENCE=(INTERNAL, Water, 4096, 0)
##$REFERENCE_POINT= 796.529    $$ Referencing label
$$      Distance of the zero axis position (in Hz) from the last data
$$      point (right edge); positive values -> right edge is below 0 Hz
##SPECTROMETER/DATA SYSTEM=Magritek
##SAMPLE DESCRIPTION=solvent=Water
$$ Bruker specific parameters
$$ --------------------------
##$AUNMP=   <proc_1d_nosref>
##$INSTRUM= <Magritek>
##$SI=      8192
##$TD=      8192
##$TDeff=   8192
##$SW=      322.870200
##$BF1=     15.4860999900848
##$SF=      15.4843965190859
##$LB=      0
##$PHC0=    217.2
##$PHC1=    0.0
##$REVERSE= yes
$$ End of Bruker specific parameters
$$ ---------------------------------
##NTUPLES=NMR FID
##VAR_NAME=        TIME,            FID/REAL,            FID/IMAG, PAGE NUMBER
##SYMBOL=             X,                   R,                   I,           N
##VAR_TYPE= INDEPENDENT,           DEPENDENT,           DEPENDENT,        PAGE
##VAR_FORM=        AFFN,                AFFN,                AFFN,        AFFN
##VAR_DIM=         8192,                8192,                8192,           2
##UNITS=        SECONDS,     ARBITRARY UNITS,     ARBITRARY UNITS,            
##FIRST=              0,                   0,                   0,           1
##LAST=    1.638199e+00,    0.47788557455499,    -0.4869360355504,           2
##MIN=                0,   -7015.55614459261,   -6726.13324231208,           1
##MAX=     1.638199e+00,      6787.425261928,     7298.9096446561,           2
##FACTOR=             1,                   1,                   1,           1
##PAGE=N=1
##DATA TABLE=(X++(R..R)), XYDATA
0.000000     0.000000  2924.454468 -5348.040657 -6800.797972   319.358995  6787.425262
0.001200  4852.409125 -2998.109048 -7015.556145 -2371.003826  5046.720630  6121.635668
0.002400  -212.346033 -6101.628626 -4537.230101  2418.032114  6356.513628  2635.189196
0.003600 -4223.575956 -5962.508597  -503.848737  5554.954491  4921.374839 -1673.586885
0.004800 -6321.024350 -3330.262319  3818.613631  6401.050877  1110.150270 -5655.028211
0.006000 -5507.711399  1495.900572  6732.003912  3650.368973 -4013.274435 -6750.626393
0.007200 -1086.090686  5963.890906  5583.824886 -1748.760880 -6869.296114 -3426.661523
0.008400  4230.514260  6559.130967   767.723895 -5851.666087 -5175.425231  1817.531743
0.009600  6449.173692  3111.425784 -3927.689166 -6040.198930  -794.648427  5282.049973
0.010800  4849.082123 -1385.826688 -5848.571930 -3243.844192  3245.790175  5784.063588
0.012000  1331.656913 -4726.285159 -5079.596024   707.099508  5681.193173  3810.239725
0.013200 -2758.232656 -6074.399902 -1947.451431  4698.914076  5625.839448  -440.347352
0.014400 -6043.898419 -4195.690363  2904.379107  6472.553784  1981.529037 -5050.650404
0.015600 -5782.561210   735.068627  6282.436644  3946.118189 -3236.927661 -6304.665177
0.016800 -1567.221090  5005.938190  5301.587759  -905.301587 -5845.997986 -3533.247796
0.018000  2977.226044  5694.761094  1519.520110 -4349.266441 -4910.022630   398.314983
0.019200  5175.147172  3697.250188 -2228.836282 -5465.009512 -2125.895301  3795.553596
0.020400  5189.595720   285.161806 -5090.426794 -4323.814413  1827.442373  5844.346423
0.021600  2670.194438 -3892.451026 -5714.300076  -430.541645  5467.431372  4604.156911
0.022800 -2037.381679 -6168.003352 -2592.832961  4216.223191  5742.295043   120.247206
0.024000 -5590.459214 -4315.134593  2255.825293  5931.816156  2256.418573 -4100.330439
0.025200 -5315.406369   -35.238257  5166.168237  3981.206004 -1982.269555 -5412.811056
0.026400 -2260.546785  3535.526825  5005.743061   452.559386 -4612.800622 -4103.591932
0.027600  1367.904901  5194.092186  2734.620064 -3040.077472 -5177.036877 -1038.416089
0.028800  4454.580889  4587.122108  -950.927133 -5440.528669 -3238.771860  3032.675343
0.030000  5612.031119  1243.407668 -4734.905067 -4887.572234  1074.683895  5751.791257
0.031200  3239.776628 -3341.456207 -5721.920857  -952.725132  4928.509577  4622.602532
0.032400 -1370.152698 -5573.625717 -2849.519250  3319.587831  5258.947332   732.611728
0.033600 -4535.281897 -4153.636441  1184.244134  4944.202776  2720.861080 -2710.295374
0.034800 -4823.762678 -1131.088041  3880.268052  4206.950074  -513.812772 -4633.150805
0.036000 -3202.245395  2139.459032  4990.872348  1780.272224 -3726.330131 -4740.160697
0.037200   130.917526  4942.611780  3683.097984 -2204.223172 -5437.622147 -1889.356556
0.038400  4070.808810  4975.454987  -359.503796 -5241.710791 -3550.577387  2554.956175
0.039600  5408.975764  1520.534263 -4173.913170 -4604.263491   625.969036  4953.469226
0.040800  3126.838180 -2451.818313 -4904.809291 -1361.094255  3722.297564  4195.593554
0.042000  -373.197110 -4383.799293 -3081.040151  1891.571986  4561.321485  1729.686510
0.043200 -3184.842241 -4259.274489  -179.477114  4145.075301  3471.339764 -1440.179750
0.044400 -4684.580966 -2230.522622  3046.357127  4654.265979   492.113603 -4357.759397
0.045600 -3839.168607  1463.559956  5015.129902  2358.425136 -3278.731674 -4865.149751
0.046800  -359.494026  4612.268052  3796.229265 -1740.659313 -5042.731402 -2066.136818
0.048000  3409.697872  4598.966160   110.144437 -4429.433296 -3426.604940  1732.843773
0.049200  4623.562009  1832.385224 -3062.435007 -4143.084396  -250.811500  3864.273901
0.050400  3296.687104 -1213.542280 -4212.078878 -2133.961688  2485.757343  4122.468300
0.051600   820.912269 -3522.668560 -3677.310618   677.373572  4325.778635  2717.729111
0.052800 -2316.534697 -4586.111095 -1183.318500  3780.571378  4126.490874  -702.149725
0.054000 -4730.721615 -2857.276698  2633.105498  4835.540863   970.198616 -4085.177635
0.055200 -4003.406084  1058.676785  4724.415768  2488.049948 -2757.935495 -4488.926209
0.056400  -690.563521  3835.025799  3577.506647  -992.405763 -4221.120541 -2296.223490
0.057600  2316.138118  4053.782722   928.031950 -3255.477180 -3516.275474   433.608337
0.058800  3873.038923  2653.140501 -1788.584380 -4109.490607 -1468.300607  3017.766146
0.060000  3904.777445    -2.079296 -4014.542548 -3128.541570  1690.886371  4492.547493
0.061200  1719.371116 -3236.946238 -4217.360328    43.807089  4297.463933  3211.615833
0.062400 -1917.364347 -4655.699824 -1561.097935  3447.473607  4107.220309  -314.513259
0.063600 -4261.220081 -2907.256166  1997.728899  4362.415969  1325.408157 -3254.289322
0.064800 -3743.570423   305.353397  3847.685152  2673.557442 -1659.666389 -3924.607055
0.066000 -1459.353246  2726.347201  3592.093743   139.821272 -3449.846110 -2895.338277
0.067200  1138.519553  3846.892056  1938.259396 -2385.466271 -3892.767212  -612.079433
0.068400  3514.474352  3363.174797  -979.685183 -4193.107167 -2237.637856  2571.620355
0.069600  4244.440567   597.702954 -3848.461795 -3482.224565  1258.299735  4399.394233
0.070800  2011.933097 -2850.877978 -4096.702394  -247.815506  3829.900378  3092.621718
0.072000 -1410.221225 -4049.803188 -1684.175021  2633.223664  3634.289657   245.697108
0.073200 -3321.798116 -2819.912047  1012.664404  3568.995642  1841.590705 -2067.960739
0.074400 -3490.020006  -730.057925  2929.883806  3087.606128  -508.133955 -3552.776196
0.075600 -2326.423530  1808.658462  3822.289474  1125.783304 -3055.341312 -3508.104906
0.076800   433.412146  3890.098012  2522.781982 -2010.704847 -4080.158728 -1042.416663
0.078000  3326.375213  3527.918958  -687.068801 -3998.888003 -2292.909542  2208.956112
0.079200  3898.534847   771.537002 -3239.938927 -3203.294532   754.008929  3691.785848
0.080400  2051.347417 -2010.891931 -3521.121357  -781.107653  2812.135054  2974.305552
0.081600  -422.831688 -3273.885327 -2168.515140  1537.837751  3370.620570  1155.724749
0.082800 -2450.934054 -3141.812368   -39.270725  3188.719747  2585.424023 -1236.407136
0.084000 -3622.654490 -1562.599808  2484.973137  3525.359086   185.847574 -3459.440745
0.085200 -2846.409728  1357.575897  3913.533431  1563.493156 -2763.083977 -3623.259034
0.086400    58.697643  3636.023245  2646.308992 -1605.714989 -3788.430385 -1249.418620
0.087600  2754.942695  3272.394613  -210.194425 -3316.725840 -2312.063957  1425.959480
0.088800  3328.786747  1204.459586 -2281.897052 -2980.564256  -140.070320  2831.328836
0.090000  2418.634897  -884.799040 -3146.275485 -1645.487397  1868.080435  3187.554174
0.091200   651.973374 -2771.750777 -2879.664520   605.973030  3449.055034  2043.615188
0.092400 -1968.753251 -3586.451519  -729.349834  3083.662885  3076.642453  -801.839486
0.093600 -3704.326091 -1948.935740  2248.511682  3587.192304   438.809430 -3180.318154
0.094800 -2796.737491  1004.974492  3488.823612  1647.129050 -2154.389629 -3220.894490
0.096000  -344.653902  2848.652860  2508.901182  -800.781313 -3064.268901 -1636.777413
0.097200  1719.364641  2983.733222   659.174055 -2445.708179 -2599.010697   363.504728
0.098400  2899.513529  1969.869191 -1375.958613 -3121.211437 -1063.309776  2370.326517
0.099600  2950.672967  -129.838267 -3106.799380 -2273.365272  1412.051997  3409.432573
0.100800  1163.366588 -2591.455211 -3130.413899   267.513722  3345.513941  2224.307129
0.102000 -1671.671078 -3444.121665  -906.001185  2720.326505  2911.631066  -499.211197
0.103200 -3205.245450 -1903.886921  1682.507145  3102.188144   717.715777 -2438.406726
0.104400 -2556.871948   375.800479  2765.211493  1800.609221 -1276.540941 -2778.374023
0.105600  -965.655224  1988.529395  2570.068359    68.761336 -2548.202945 -2135.194883
0.106800   883.600139  2908.422127  1409.934800 -1904.549434 -2952.130095  -322.515166
0.108000  2789.265033  2462.047463  -963.750081 -3240.471625 -1473.045971  2185.056105
