##TITLE=1D-13C-1-2-5-328-110-"no"-"yes"
##JCAMP-DX=5.01 $$ Magritek Spinsolve SPA1903 2.0.4.4423
##DATA TYPE=NMR FID
##DATA CLASS=NTUPLES
##ORIGIN=SPA1903 at Magritek
##OWNER=Copyright (C) 2025 by Magritek
##LONGDATE=2025/03/17 12:00:35.676
##.OBSERVE FREQUENCY=15.4860999900848
##.OBSERVE NUCLEUS=^13C
##.DELAY=( 20,  2000)
##.ACQUISITION MODE=SIMULTANEOUS
##.FIELD= 1.5
##.AVERAGES= 1
##.DIGITISER RES=16
##.SHIFT REFERENCE=(INTERNAL, Water, 4096, 0)
##$REFERENCE_POINT= 796.529    $$ Referencing label
$$      Distance of the zero axis position (in Hz) from the last data
$$      point (right edge); positive values -> right edge is below 0 Hz
##SPECTROMETER/DATA SYSTEM=Magritek
##SAMPLE DESCRIPTION=solvent=Water
$$ Bruker specific parameters
$$ --------------------------
##$AUNMP=   <proc_1d_nosref>
##$INSTRUM= <Magritek>
##$SI=      8192
##$TD=      8192
##$TDeff=   8192
##$SW=      322.870200
##$BF1=     15.4860999900848
##$SF=      15.4843965190859
##$LB=      0
##$PHC0=    216.4
##$PHC1=    0.0
##$REVERSE= yes
$$ End of Bruker specific parameters
$$ ---------------------------------
##NTUPLES=NMR FID
##VAR_NAME=        TIME,            FID/REAL,            FID/IMAG, PAGE NUMBER
##SYMBOL=             X,                   R,                   I,           N
##VAR_TYPE= INDEPENDENT,           DEPENDENT,           DEPENDENT,        PAGE
##VAR_FORM=        AFFN,                AFFN,                AFFN,        AFFN
##VAR_DIM=         8192,                8192,                8192,           2
##UNITS=        SECONDS,     ARBITRARY UNITS,     ARBITRARY UNITS,            
##FIRST=              0,                   0,                   0,           1
##LAST=    1.638199e+00,  -0.574022443714871,   0.025554122508828,           2
##MIN=                0,   -1953.03366466243,   -1928.11311419232,           1
##MAX=     1.638199e+00,    1893.23795454685,    2037.11202150916,           2
##FACTOR=             1,                   1,                   1,           1
##PAGE=N=1
##DATA TABLE=(X++(R..R)), XYDATA
0.000000     0.000000   823.910645 -1469.607099 -1909.784000    69.279257  1892.435612
0.001200  1365.746695  -827.197685 -1953.033665  -675.439002  1393.515879  1713.689980
0.002400   -40.623363 -1690.203408 -1281.627628   655.078195  1771.879511   752.721758
0.003600 -1155.359372 -1662.745988  -174.466644  1530.068831  1401.667285  -429.255013
0.004800 -1765.269537  -965.235401  1038.443877  1802.341097   357.914564 -1563.224417
0.006000 -1579.840115   372.921912  1893.237955  1078.812912 -1095.196557 -1924.276332
0.007200  -358.489260  1666.919908  1615.457615  -461.365694 -1950.663243 -1011.196836
0.008400  1169.792361  1881.034920   261.159809 -1652.973842 -1503.046531   484.650472
0.009600  1831.547638   923.936668 -1079.597346 -1733.697121  -271.704653  1476.439826
0.010800  1414.414438  -341.012379 -1663.757636  -970.949346   874.771095  1657.117292
0.012000   443.543866 -1315.909898 -1490.145103   137.669095  1623.765255  1146.787258
0.013200  -742.539596 -1761.710162  -624.648954  1319.021493  1662.676757   -53.384737
0.014400 -1732.448793 -1274.165025   791.841158  1886.018626   635.819296 -1420.529663
0.015600 -1706.274531   142.766104  1804.853440  1211.859024  -880.618213 -1849.869713
0.016800  -520.059127  1412.930732  1572.629791  -188.028322 -1673.660709 -1084.009865
0.018000   793.876442  1667.574984   520.261992 -1222.989239 -1470.332314    39.518803
0.019200  1489.978370  1143.730899  -578.223938 -1602.535923  -705.894849  1057.198021
0.020400  1568.684116   173.030532 -1467.840244 -1333.451042   451.213589  1722.502347
0.021600   874.754781 -1090.283807 -1729.823702  -217.841321  1590.077776  1428.207647
0.022800  -515.442078 -1824.025707  -857.180143  1179.500820  1738.119832   132.951454
0.024000 -1620.079555 -1345.086001   586.814128  1756.851705   758.512329 -1144.884464
0.025200 -1611.849923  -105.403378  1492.655635  1244.128501  -492.895845 -1600.940388
0.026400  -765.479831   976.648932  1523.380784   236.866875 -1328.466087 -1292.523933
0.027600   298.491886  1534.992452   919.212474  -823.728184 -1583.842976  -420.457338
0.028800  1282.759088  1441.295588  -178.043509 -1615.999100 -1067.906101   826.353679
0.030000  1721.089594   483.632284 -1376.867437 -1539.542400   227.260643  1723.056958
0.031200  1068.248885  -918.499352 -1748.155165  -398.644053  1427.191843  1458.087218
0.032400  -308.770816 -1655.643996  -951.328891   900.262899  1609.973122   342.584776
0.033600 -1296.214630 -1322.361858   232.696312  1473.591535   929.762456  -713.829094
0.034800 -1485.071779  -474.220789  1102.413488  1355.288991   -25.489604 -1384.545117
0.036000 -1085.917909   546.047576  1553.867262   666.803736 -1062.928469 -1513.094372
0.037200   -85.619078  1483.051463  1229.777146  -569.462760 -1686.752953  -704.310015
0.038400  1171.937640  1593.046910    19.150433 -1574.376787 -1189.943284   671.319306
0.039600  1674.526793   594.844453 -1194.583016 -1482.499139    53.397643  1486.604074
0.040800  1072.805400  -630.925949 -1520.424661  -554.403212  1054.276263  1367.825221
0.042000    36.290967 -1318.439383 -1069.441525   452.475602  1425.168411   679.736973
0.043200  -888.312294 -1389.186972  -211.982677  1244.080410  1202.228731  -314.302091
0.044400 -1472.241768  -833.412802   851.141021  1520.773252   308.274106 -1314.769124
0.045600 -1317.133527   322.299436  1582.428628   880.915587  -926.436651 -1584.101990
0.046800  -259.009909  1386.250019  1295.199041  -403.630307 -1585.162288  -788.361772
0.048000   957.371714  1496.388300   193.566948 -1317.803733 -1182.323388   379.959662
0.049200  1440.419717   732.274385  -833.548020 -1362.817103  -254.888138  1142.018848
0.050400  1154.669938  -216.218827 -1319.781640  -840.513139   655.395511  1371.645880
0.051600   431.788786 -1053.125628 -1287.962722    56.423404  1366.222551  1012.040062
0.052800  -611.773069 -1517.748502  -541.442858  1135.262562  1415.759869   -72.134896
0.054000 -1484.822604 -1049.891468   710.114399  1577.182813   474.501959 -1213.327121
0.055200 -1371.728982   171.953712  1468.667397   940.085283  -727.064223 -1467.088807
0.056400  -399.994403  1114.750549  1241.833669  -130.421949 -1312.898017  -887.720341
0.057600   591.548219  1341.605477   483.736412  -943.199518 -1233.009721   -43.870844
0.058800  1208.750703  1011.092056  -415.693039 -1365.478968  -656.328873   871.375069
0.060000  1356.803146   170.510630 -1259.261483 -1154.740402   392.328678  1477.062225
0.061200   732.545933  -936.629361 -1450.092327  -155.215144  1345.048150  1169.244506
0.062400  -459.088991 -1515.374423  -675.429777  1001.618298  1407.924127    78.479142
0.063600 -1323.291208 -1080.888450   475.611227  1412.318952   608.625110  -917.367897
0.064800 -1295.691671  -105.756094  1177.730928  1019.302743  -358.833304 -1285.488167
0.066000  -666.119819   752.432987  1258.972880   250.158333 -1061.526077 -1104.617459
0.067200   192.236176  1278.880217   823.386982  -658.468503 -1367.813484  -396.250358
0.068400  1095.618269  1250.874271  -151.061994 -1391.544177  -911.249145   719.793220
0.069600  1466.735911   378.034280 -1190.346515 -1268.468769   235.566172  1432.576661
0.070800   834.140301  -789.968384 -1412.539447  -277.353624  1163.370589  1151.363410
0.072000  -259.395538 -1312.814805  -748.172990   697.772239  1267.333812   302.821382
0.073200 -1000.375988 -1085.742957   119.904172  1169.228618   809.682105  -522.282046
0.074400 -1232.954041  -463.483227   888.574145  1186.927360    30.595637 -1186.314194
0.075600  -965.013641   451.879509  1347.469716   580.468410  -933.447668 -1302.450854
0.076800   -49.783991  1279.778368  1018.465857  -518.044048 -1416.906819  -546.874847
0.078000  1003.246925  1295.302796   -22.339945 -1295.652213  -944.611080   561.843841
0.079200  1353.852396   471.111809  -964.636429 -1187.510643    27.900837  1182.801071
0.080400   880.656912  -475.914670 -1225.879358  -496.480701   820.296338  1134.444981
0.081600    88.076453 -1054.862491  -929.986863   319.251527  1189.486346   629.171985
0.082800  -709.198007 -1198.263194  -232.546916  1042.800105  1063.952093  -238.160937
0.084000 -1274.641585  -744.841439   726.674194  1315.917520   268.877718 -1127.512876
0.085200 -1134.041780   280.372734  1351.362078   727.199201  -803.652892 -1323.873308
0.086400  -194.558903  1160.349872  1057.922982  -346.424976 -1289.636091  -634.249517
0.087600   770.088530  1199.412055   174.848155 -1038.863500  -966.467136   257.375531
0.088800  1144.443584   648.859654  -609.853686 -1128.552163  -299.987672   892.883172
0.090000  1014.551699   -90.254333 -1104.238969  -794.072917   493.168151  1205.291073
0.091200   452.393673  -886.192557 -1157.931819    14.288592  1194.825093   900.222672
0.092400  -529.110350 -1317.016260  -461.017452   981.095798  1200.255473   -77.110520
0.093600 -1256.046583  -858.010648   602.865404  1291.387511   376.279103  -982.385523
0.094800 -1106.997385   122.694265  1175.647785   770.017964  -552.214007 -1171.209644
0.096000  -367.781434   860.971306  1030.519317   -35.342168 -1044.288092  -789.812776
0.097200   405.884008  1113.111217   477.782601  -735.360120 -1067.869799  -104.920093
0.098400  1005.311221   906.324719  -304.153934 -1167.231885  -603.765058   724.608001
0.099600  1175.566656   171.661443 -1070.636848  -998.667323   327.969468  1256.488056
0.100800   618.495602  -792.650725 -1220.681955  -122.811169  1125.027604   963.144405
0.102000  -393.088336 -1237.844454  -539.434160   805.968246  1137.674868    71.660851
0.103200 -1051.411212  -866.409817   366.271913  1117.631352   508.216791  -695.803834
0.104400 -1037.861596  -134.293362   908.570452   856.835203  -220.898926 -1038.124733
0.105600  -611.002519   558.107279  1062.097476   284.861611  -861.921739  -981.542319
0.106800   111.456281  1090.959207   739.121669  -549.446373 -1181.401894  -346.129046
0.108000   943.515817  1067.209217  -148.812272 -1183.959508  -740.990415   631.297410
