##TITLE=1D-13C-1-2-5-328-110-"no"-"yes"
##JCAMP-DX=5.01 $$ Magritek Spinsolve SPA1903 2.0.4.4423
##DATA TYPE=NMR FID
##DATA CLASS=NTUPLES
##ORIGIN=SPA1903 at Magritek
##OWNER=Copyright (C) 2025 by Magritek
##LONGDATE=2025/03/17 11:57:09.606
##.OBSERVE FREQUENCY=15.4860999900848
##.OBSERVE NUCLEUS=^13C
##.DELAY=( 20,  2000)
##.ACQUISITION MODE=SIMULTANEOUS
##.FIELD= 1.5
##.AVERAGES= 1
##.DIGITISER RES=16
##.SHIFT REFERENCE=(INTERNAL, Water, 4096, 0)
##$REFERENCE_POINT= 796.529    $$ Referencing label
$$      Distance of the zero axis position (in Hz) from the last data
$$      point (right edge); positive values -> right edge is below 0 Hz
##SPECTROMETER/DATA SYSTEM=Magritek
##SAMPLE DESCRIPTION=solvent=Water
$$ Bruker specific parameters
$$ --------------------------
##$AUNMP=   <proc_1d_nosref>
##$INSTRUM= <Magritek>
##$SI=      8192
##$TD=      8192
##$TDeff=   8192
##$SW=      322.870200
##$BF1=     15.4860999900848
##$SF=      15.4843965190859
##$LB=      0
##$PHC0=    217.6
##$PHC1=    0.0
##$REVERSE= yes
$$ End of Bruker specific parameters
$$ ---------------------------------
##NTUPLES=NMR FID
##VAR_NAME=        TIME,            FID/REAL,            FID/IMAG, PAGE NUMBER
##SYMBOL=             X,                   R,                   I,           N
##VAR_TYPE= INDEPENDENT,           DEPENDENT,           DEPENDENT,        PAGE
##VAR_FORM=        AFFN,                AFFN,                AFFN,        AFFN
##VAR_DIM=         8192,                8192,                8192,           2
##UNITS=        SECONDS,     ARBITRARY UNITS,     ARBITRARY UNITS,            
##FIRST=              0,                   0,                   0,           1
##LAST=    1.638199e+00,   0.166406707522231,-3.2845598307420e-03,           2
##MIN=                0,   -11390.3268633651,   -10770.5087326047,           1
##MAX=     1.638199e+00,    10977.6674438167,     11820.542677069,           2
##FACTOR=             1,                   1,                   1,           1
##PAGE=N=1
##DATA TABLE=(X++(R..R)), XYDATA
0.000000     0.000000  4721.688126 -8713.637799 -11008.078572   538.090190 10977.667444
0.001200  7865.983831 -4830.017071 -11390.326863 -3871.972588  8192.502758  9933.912065
0.002400  -375.330626 -9898.416017 -7319.067793  3933.553744 10297.675690  4245.258935
0.003600 -6887.363724 -9644.523938  -729.827345  9029.851773  7879.323913 -2790.716477
0.004800 -10177.878695 -5266.504988  6210.882648 10258.123001  1664.887639 -9142.267180
0.006000 -8744.834214  2516.520654 10761.346099  5728.169756 -6471.224828 -10725.396453
0.007200 -1647.444610  9526.023957  8849.654259 -2869.367857 -10966.735003 -5381.393243
0.008400  6790.272162 10394.960421  1141.712123 -9343.055479 -8180.142010  2971.130504
0.009600 10277.754898  4892.309656 -6339.748596 -9590.100578 -1136.501803  8459.223200
0.010800  7635.946386 -2311.926155 -9304.901971 -5044.589129  5260.338930  9146.734269
0.012000  1938.076871 -7583.425816 -7897.659626  1310.503697  8961.997255  5836.985084
0.013200 -4474.355451 -9527.173254 -2896.474308  7496.937316  8723.437681  -884.962071
0.014400 -9485.007337 -6410.733708  4665.808061 10087.376182  2967.665152 -7986.000663
0.015600 -8976.152570  1306.642308  9875.464300  6032.097282 -5195.857460 -9805.550668
0.016800 -2294.915694  7913.555575  8224.918470 -1584.837888 -9201.539926 -5357.428292
0.018000  4840.423651  8847.908597  2161.659269 -6903.408923 -7554.828136   840.755095
0.019200  8138.289774  5578.079008 -3689.363142 -8456.924607 -3047.243367  6032.352800
0.020400  7913.553234   215.416628 -7931.965407 -6503.724070  3028.266742  9019.905327
0.021600  3897.027385 -6169.406796 -8703.837082  -433.034023  8493.687667  6930.941184
0.022800 -3324.609849 -9508.098662 -3815.812457  6650.888548  8766.702933   -38.324594
0.024000 -8686.188570 -6476.342274  3676.212221  9119.424206  3277.481491 -6465.147470
0.025200 -8108.531578   178.134709  8059.504271  5955.220171 -3296.867281 -8323.306538
0.026400 -3233.265027  5612.819416  7579.266689   433.388524 -7184.192073 -6092.450292
0.027600  2379.232797  7939.192904  3891.871105 -4843.665740 -7763.229145 -1296.862858
0.028800  6868.523758  6781.718191 -1703.982199 -8270.097532 -4661.836623  4799.471718
0.030000  8397.749081  1614.290493 -7250.783274 -7237.098917  1822.521057  8748.405147
0.031200  4732.052958 -5254.524609 -8604.002251 -1183.670738  7579.562456  6843.996062
0.032400 -2291.831552 -8462.854000 -4106.621950  5243.888674  7927.449114   807.938368
0.033600 -7031.303266 -6085.376003  2092.749441  7490.043329  3825.956757 -4333.186796
0.034800 -7185.070676 -1373.367530  6012.270939  6099.444263 -1107.478516 -6942.213758
0.036000 -4484.758641  3416.661859  7350.634985  2357.880371 -5694.288522 -6884.906735
0.037200   476.230125  7392.673912  5223.321123 -3494.524032 -8001.391034 -2567.651397
0.038400  6180.772741  7263.212149  -782.890816 -7864.085164 -5055.219188  4040.208425
0.039600  7992.774891  1968.026359 -6373.804540 -6681.451391  1219.447268  7443.087799
0.040800  4402.364127 -3935.098918 -7239.065483 -1671.958254  5732.739593  6006.277369
0.042000  -912.980712 -6542.971057 -4251.298077  3090.317214  6662.316675  2190.129380
0.043200 -4910.031681 -6053.645886   118.583745  6141.857378  4771.160407 -2396.088401
0.044400 -6774.630942 -2939.829438  4646.974662  6632.823531   384.719582 -6431.953383
0.045600 -5318.275177  2403.857448  7228.132443  3151.720155 -4936.516160 -6965.267214
0.046800  -232.716049  6833.948560  5295.679950 -2842.648223 -7324.899711 -2700.789921
0.048000  5173.152518  6570.574615  -167.773973 -6608.133110 -4757.567854  2899.399898
0.049200  6754.731921  2286.103972 -4734.734224 -5843.631436    40.247623  5749.205349
0.050400  4482.168387 -2150.701011 -6096.162287 -2666.302110  3881.639472  5736.156004
0.051600   769.725199 -5178.733651 -4999.760699  1290.175655  6189.954161  3559.988650
0.052800 -3573.229781 -6432.071440 -1348.489954  5527.626488  5663.694445 -1297.368083
0.054000 -6792.499201 -3830.584614  4018.785940  6868.638568  1064.321759 -6054.009996
0.055200 -5543.273663  1856.400854  6834.619935  3263.747505 -4262.618251 -6365.746216
0.056400  -609.265310  5728.709344  4894.766854 -1838.570416 -6112.229564 -2896.153397
0.057600  3659.415707  5654.972446   894.714747 -4840.786731 -4745.902835  1032.974934
0.058800  5551.408758  3381.162533 -2862.835660 -5680.891097 -1671.935531  4429.901725
0.060000  5277.475275  -341.835887 -5723.548698 -4124.111244  2680.834960  6264.138914
0.061200  2077.463901 -4738.156430 -5740.183344   379.701951  6133.877040  4283.404942
0.062400 -2999.010133 -6548.522923 -1859.825522  5105.741903  5615.740942  -804.884102
0.063600 -6113.021258 -3827.226218  3152.048757  6149.611291  1496.059685 -4885.842216
0.064800 -5078.569050   887.193955  5534.582287  3403.147177 -2713.808877 -5459.459699
0.066000 -1619.039887  4113.423506  4795.840647  -288.686448 -4923.808237 -3632.857050
0.067200  1958.578122  5246.097058  2288.683923 -3535.963301 -5182.759769  -463.416490
0.068400  4951.769900  4348.040247 -1664.263128 -5736.972755 -2766.253918  3749.307264
0.069600  5721.457958   513.571705 -5445.840904 -4593.188616  2077.887674  6126.152723
0.070800  2461.600991 -4236.008313 -5562.946258    49.018593  5494.281041  4019.627650
0.072000 -2368.103479 -5650.681722 -1915.059610  4009.793736  4844.449974  -172.625001
0.073200 -4764.010500 -3517.509323  1851.184329  4878.710108  2068.225259 -3157.615068
0.074400 -4568.652742  -505.430229  4152.490711  3844.352658 -1077.389487 -4777.783970
0.075600 -2769.368269  2705.962715  5027.037194  1150.446662 -4298.703661 -4489.724180
0.076800   948.353772  5280.730780  3088.315998 -2991.093689 -5437.246942 -1074.338211
0.078000  4716.863479  4590.929741 -1325.560688 -5514.356182 -2758.970047  3344.624108
0.079200  5204.343073   638.241789 -4646.673000 -4121.889124  1483.566937  5118.848391
0.080400  2363.561858 -3143.900117 -4637.666314  -551.735399  4053.590090  3725.122997
0.081600 -1048.890072 -4499.013985 -2481.089307  2480.835144  4383.834450  1050.305664
0.082800 -3490.021947 -3886.946924   366.279053  4281.035760  3063.994201 -1977.170530
0.084000 -4711.755376 -1680.194091  3500.698999  4457.544148   -92.437094 -4656.862851
0.085200 -3514.642408  2104.976119  5197.538233  1758.571969 -3940.422284 -4695.217878
0.086400   447.009372  5002.150480  3272.407840 -2515.323408 -5097.056602 -1296.532929
0.087600  4032.282660  4234.417115  -764.045879 -4639.692575 -2727.625459  2381.172742
0.088800  4407.890018  1109.876304 -3367.766340 -3712.055004   330.894892  3890.358336
0.090000  2787.442086 -1602.844506 -4062.922893 -1694.824177  2702.166043  3934.951546
0.091200   460.796737 -3703.591139 -3474.014471  1103.215105  4491.783484  2349.023194
0.092400 -2804.149434 -4556.476337  -635.782425  4172.514646  3843.830100 -1357.128261
0.093600 -4935.283322 -2283.348975  3271.920701  4650.158119   186.368746 -4407.876226
0.094800 -3458.897307  1720.116718  4678.466387  1815.997809 -3224.232746 -4146.252859
0.096000    43.676760  3990.553720  2966.596278 -1516.011286 -4030.624999 -1704.793013
0.097200  2603.305031  3738.100471   370.657023 -3388.003523 -3028.465360   915.250635
0.098400  3728.461348  2123.425542 -2049.564227 -3858.175098  -982.550337  3207.234474
0.099600  3529.877194  -522.581338 -3998.774941 -2591.346299  2063.744797  4275.467012
0.100800  1184.508837 -3494.254830 -3862.453007   663.876103  4397.686050  2590.215437
0.102000 -2473.860149 -4408.964484  -821.278705  3754.358473  3592.213298 -1048.717445
0.103200 -4299.351633 -2131.760190  2599.782281  3968.005162   443.600215 -3459.794044
0.104400 -3021.977420  1003.398978  3648.991018  1863.184508 -2063.769435 -3429.012564
0.105600  -707.219641  2791.636795  2933.283364  -382.683639 -3231.920019 -2264.725510
0.106800  1430.546215  3512.476610  1380.368877 -2565.529677 -3479.126542   -60.791634
0.108000  3545.316204  2803.890765 -1475.941411 -4026.027210 -1569.550258  2962.326728
