##TITLE=1D-13C-1-2-5-328-110-"no"-"yes"
##JCAMP-DX=5.01 $$ Magritek Spinsolve SPA1903 2.0.4.4423
##DATA TYPE=NMR FID
##DATA CLASS=NTUPLES
##ORIGIN=SPA1903 at Magritek
##OWNER=Copyright (C) 2025 by Magritek
##LONGDATE=2025/03/17 11:58:58.776
##.OBSERVE FREQUENCY=15.4860999900848
##.OBSERVE NUCLEUS=^13C
##.DELAY=( 20,  2000)
##.ACQUISITION MODE=SIMULTANEOUS
##.FIELD= 1.5
##.AVERAGES= 1
##.DIGITISER RES=16
##.SHIFT REFERENCE=(INTERNAL, Water, 4096, 0)
##$REFERENCE_POINT= 796.529    $$ Referencing label
$$      Distance of the zero axis position (in Hz) from the last data
$$      point (right edge); positive values -> right edge is below 0 Hz
##SPECTROMETER/DATA SYSTEM=Magritek
##SAMPLE DESCRIPTION=solvent=Water
$$ Bruker specific parameters
$$ --------------------------
##$AUNMP=   <proc_1d_nosref>
##$INSTRUM= <Magritek>
##$SI=      8192
##$TD=      8192
##$TDeff=   8192
##$SW=      322.870200
##$BF1=     15.4860999900848
##$SF=      15.4843965190859
##$LB=      0
##$PHC0=    216.9
##$PHC1=    0.0
##$REVERSE= yes
$$ End of Bruker specific parameters
$$ ---------------------------------
##NTUPLES=NMR FID
##VAR_NAME=        TIME,            FID/REAL,            FID/IMAG, PAGE NUMBER
##SYMBOL=             X,                   R,                   I,           N
##VAR_TYPE= INDEPENDENT,           DEPENDENT,           DEPENDENT,        PAGE
##VAR_FORM=        AFFN,                AFFN,                AFFN,        AFFN
##VAR_DIM=         8192,                8192,                8192,           2
##UNITS=        SECONDS,     ARBITRARY UNITS,     ARBITRARY UNITS,            
##FIRST=              0,                   0,                   0,           1
##LAST=    1.638199e+00, -0.0882366791201949,   0.415552101008749,           2
##MIN=                0,   -4521.70995514057,    -4396.7354417398,           1
##MAX=     1.638199e+00,    4376.68324048135,    4710.04752215432,           2
##FACTOR=             1,                   1,                   1,           1
##PAGE=N=1
##DATA TABLE=(X++(R..R)), XYDATA
0.000000     0.000000  1890.173489 -3437.473970 -4391.868433   191.000203  4376.683240
0.001200  3135.763720 -1935.854666 -4521.709955 -1524.733865  3244.130166  3946.272942
0.002400  -127.299896 -3924.627189 -2924.987344  1548.364742  4092.503920  1705.719251
0.003600 -2703.459290 -3840.200366  -350.031991  3563.294729  3194.199795 -1045.092754
0.004800 -4074.810322 -2169.957057  2441.022837  4144.204109   756.907643 -3641.100306
0.006000 -3597.810881   925.500304  4368.305416  2407.934780 -2587.306500 -4403.354693
0.007200  -742.023549  3858.330573  3653.475578 -1104.761486 -4470.949291 -2261.489098
0.008400  2728.156985  4280.343629   529.594148 -3806.785632 -3387.029719  1161.223219
0.009600  4192.501510  2045.858783 -2536.612243 -3939.926725  -550.356485  3418.163916
0.010800  3183.476614  -865.053874 -3799.903208 -2142.923034  2076.105921  3782.028557
0.012000   927.344475 -3050.096310 -3342.973182   404.177017  3699.627072  2538.932705
0.013200 -1761.932861 -3994.517294 -1331.581815  3049.767370  3732.776349  -229.991762
0.014400 -3966.785874 -2805.773355  1873.153351  4276.302399  1350.304092 -3296.153409
0.015600 -3829.349503   432.938262  4121.216484  2646.947974 -2084.240898 -4164.180689
0.016800 -1078.717104  3266.773580  3512.257860  -542.526781 -3827.943448 -2374.703721
0.018000  1901.057748  3752.924757  1062.578793 -2830.399678 -3268.434679   203.884446
0.019200  3395.014796  2493.821678 -1398.252593 -3611.630568 -1487.679313  2454.495372
0.020400  3471.743415   264.253338 -3342.458495 -2913.905797  1137.338896  3874.192911
0.021600  1847.712661 -2527.739772 -3827.633785  -363.292478  3609.874000  3115.837105
0.022800 -1284.240334 -4107.385786 -1800.945337  2752.182416  3848.439402   155.052786
0.024000 -3687.380690 -2923.689018  1425.909568  3941.926114  1564.411022 -2677.606716
0.025200 -3556.968270   -96.071656  3398.645854  2699.644739 -1244.991398 -3599.137815
0.026400 -1584.001184  2292.528029  3358.041061   390.264681 -3017.047992 -2786.516983
0.027600   816.579452  3446.409709  1920.161318 -1950.223444 -3487.564107  -792.125355
0.028800  2926.669166  3125.576043  -544.036736 -3626.060271 -2251.992876  1958.841919
0.030000  3799.010680   927.163534 -3138.599421 -3335.270763   636.932383  3846.085464
0.031200  2249.827056 -2167.587440 -3857.544387  -730.064997  3259.144414  3154.332589
0.032400  -835.807817 -3723.059902 -1978.237539  2141.785061  3543.200619   588.981103
0.033600 -2986.240360 -2849.964941   684.225548  3301.516182  1916.298630 -1729.644432
0.034800 -3257.411818  -868.768786  2542.689833  2899.087110  -228.302183 -3102.885170
0.036000 -2256.926666  1352.680473  3393.465329  1305.097587 -2461.924516 -3261.400381
0.037200   -18.236048  3315.108671  2578.040311 -1401.669213 -3697.545428 -1382.301031
0.038400  2699.249903  3419.264881  -141.484688 -3517.828209 -2490.549331  1631.948642
0.039600  3675.523846  1133.909230 -2759.140563 -3172.020419   311.541076  3322.438801
0.040800  2207.007234 -1557.668632 -3334.644053 -1034.093797  2448.098679  2901.236348
0.042000  -127.343607 -2942.877548 -2191.418512  1175.762750  3103.753357  1295.350639
0.043200 -2080.391578 -2955.296962  -253.156135  2783.127576  2473.874016  -863.788947
0.044400 -3205.095297 -1644.191834  1996.990503  3241.465054   469.187699 -2932.662984
0.045600 -2723.462987   887.131666  3435.352045  1723.542092 -2157.150001 -3372.681279
0.046800  -370.748055  3105.139645  2684.009721 -1072.421832 -3451.090321 -1526.230749
0.048000  2244.106887  3185.526057   196.839550 -2976.665920 -2425.932933  1059.188316
0.049200  3153.587862  1380.005094 -1994.003061 -2888.131916  -314.652713  2583.050982
0.050400  2349.949576  -698.247717 -2882.022377 -1603.290534  1592.419127  2891.902826
0.051600   714.151341 -2371.090602 -2634.886427   330.407813  2977.197881  1995.525489
0.052800 -1501.614759 -3211.744423  -949.531200  2552.647094  2929.207406  -364.207366
0.054000 -3248.394863 -2076.979467  1715.842026  3368.395893   800.883938 -2752.305867
0.055200 -2837.050564   599.315039  3234.496213  1832.574097 -1786.116981 -3117.930112
0.056400  -616.717911  2558.913824  2546.822908  -532.273540 -2880.556215 -1714.008895
0.057600  1473.646664  2834.399648   790.823766 -2170.821929 -2521.773199   148.052897
0.058800  2651.639090  1969.102684 -1114.970400 -2886.937531 -1167.174473  2017.246911
0.060000  2792.327860   134.488014 -2758.779670 -2292.681251  1051.384784  3148.607923
0.061200  1335.462351 -2168.529156 -3002.914729   -95.979285  2959.762438  2335.700561
0.062400 -1216.639214 -3249.562141 -1212.119817  2305.287184  2920.048182   -74.748599
0.063600 -2922.715138 -2124.137594  1263.594808  3036.400411  1062.535344 -2154.686246
0.064800 -2666.255972    55.320757  2622.046704  1981.882470 -1009.599567 -2742.814145
0.066000 -1168.724314  1795.289007  2582.453149   262.878624 -2361.122640 -2158.293607
0.067200   654.156398  2718.736428  1507.252766 -1580.038505 -2799.341939  -584.173485
0.068400  2419.155410  2474.604708  -558.711977 -2963.788897 -1705.085845  1719.551773
0.069600  3027.306514   547.865499 -2642.680900 -2532.344790   754.916961  3081.335360
0.070800  1536.658675 -1900.002083 -2923.428623  -321.253989  2612.849840  2268.560956
0.072000  -831.393939 -2819.356480 -1327.057069  1719.503828  2604.918386   349.075844
0.073200 -2260.597978 -2107.437173   549.357139  2512.060952  1458.018138 -1332.772079
0.074400 -2531.263359  -693.419875  2008.290918  2307.031702  -205.091822 -2518.748420
0.075600 -1790.313640  1170.518061  2766.150680   952.433419 -2099.844285 -2583.175103
0.076800   163.507427  2746.733723  1921.998050 -1313.723520 -2932.780600  -883.339562
0.078000  2278.867952  2586.709513  -328.428230 -2803.183240 -1764.755867  1434.241531
0.079200  2799.481420   705.035414 -2205.507517 -2359.882678   363.222583  2569.113737
0.080400  1600.808201 -1271.838382 -2535.687117  -731.729119  1904.322661  2223.987446
0.081600  -118.456603 -2298.325748 -1701.607709   938.586415  2451.810353  1010.799264
0.082800 -1654.355302 -2353.063087  -196.110189  2256.343057  1992.750185  -749.715719
0.084000 -2627.815724 -1280.153367  1691.466728  2615.877281   285.706023 -2446.775889
0.085200 -2153.765065   853.730461  2821.405875  1261.866177 -1879.764417 -2661.702564
0.086400  -118.051555  2543.973085  2009.667759  -998.208593 -2707.707142 -1049.339684
0.087600  1849.713009  2409.734459    35.520354 -2299.959967 -1794.410113   847.260689
0.088800  2395.484210  1051.661354 -1506.868775 -2223.379401  -292.208166  1976.747811
0.090000  1886.447347  -466.546774 -2290.019416 -1366.657787  1242.781827  2390.914610
0.091200   634.750573 -1958.610753 -2204.608206   297.527967  2502.155179  1617.217126
0.092400 -1317.183126 -2651.488290  -674.768584  2173.280628  2314.337019  -438.991194
0.093600 -2655.740205 -1539.304293  1495.442180  2627.235095   487.911860 -2208.494507
0.094800 -2123.023050   560.013931  2490.187393  1341.501582 -1407.846346 -2375.315778
0.096000  -440.478471  1961.712892  1940.220714  -393.338019 -2201.822639 -1353.071410
0.097200  1099.383604  2223.783254   671.666631 -1691.316232 -2021.638283    86.094578
0.098400  2106.659977  1598.881090  -868.890605 -2335.281245  -949.455102  1658.979593
0.099600  2264.151013    61.421354 -2260.392152 -1805.267605   918.631688  2533.243117
0.100800   997.052422 -1808.708087 -2371.188294    41.205338  2404.396961  1748.487645
0.102000 -1081.537012 -2531.479084  -822.256724  1875.333345  2202.861578  -183.176189
0.103200 -2279.880267 -1537.127124  1053.317950  2281.893049   719.439304 -1652.048081
0.104400 -1971.611083    71.107314  1975.503296  1488.454775  -757.389769 -2083.591243
0.105600  -922.654967  1347.766452  2011.066784   252.471197 -1844.774524 -1740.641842
0.106800   507.173367  2197.476575  1215.484206 -1311.764616 -2274.321731  -406.454772
0.108000  2021.674524  1952.373412  -577.029516 -2415.228382 -1238.829928  1500.768846
