##TITLE=1D-13C-1-5-5-328-110-"no"-"yes"
##JCAMP-DX=5.01 $$ Magritek Spinsolve SPA1903 2.0.4.4423
##DATA TYPE=NMR FID
##DATA CLASS=NTUPLES
##ORIGIN=SPA1903 at Magritek
##OWNER=Copyright (C) 2025 by Magritek
##LONGDATE=2025/02/12 14:33:31.024
##.OBSERVE FREQUENCY=15.4861775226891
##.OBSERVE NUCLEUS=^13C
##.DELAY=( 20,  5000)
##.ACQUISITION MODE=SIMULTANEOUS
##.FIELD= 1.5
##.AVERAGES= 1
##.DIGITISER RES=16
##.SHIFT REFERENCE=(INTERNAL, Water, 4096, 0)
##$REFERENCE_POINT= 796.520    $$ Referencing label
$$      Distance of the zero axis position (in Hz) from the last data
$$      point (right edge); positive values -> right edge is below 0 Hz
##SPECTROMETER/DATA SYSTEM=Magritek
##SAMPLE DESCRIPTION=solvent=Water
$$ Bruker specific parameters
$$ --------------------------
##$AUNMP=   <proc_1d_nosref>
##$INSTRUM= <Magritek>
##$SI=      8192
##$TD=      8192
##$TDeff=   8192
##$SW=      322.868600
##$BF1=     15.4861775226891
##$SF=      15.4844740431616
##$LB=      0
##$PHC0=    217.2
##$PHC1=    0.0
##$REVERSE= yes
$$ End of Bruker specific parameters
$$ ---------------------------------
##NTUPLES=NMR FID
##VAR_NAME=        TIME,            FID/REAL,            FID/IMAG, PAGE NUMBER
##SYMBOL=             X,                   R,                   I,           N
##VAR_TYPE= INDEPENDENT,           DEPENDENT,           DEPENDENT,        PAGE
##VAR_FORM=        AFFN,                AFFN,                AFFN,        AFFN
##VAR_DIM=         8192,                8192,                8192,           2
##UNITS=        SECONDS,     ARBITRARY UNITS,     ARBITRARY UNITS,            
##FIRST=              0,                   0,                   0,           1
##LAST=    1.638199e+00,  0.0144089100589687,  0.0767344360255581,           2
##MIN=                0,   -46.1559262652124,   -45.2387905294053,           1
##MAX=     1.638199e+00,    46.6860908692811,    48.4760542952238,           2
##FACTOR=             1,                   1,                   1,           1
##PAGE=N=1
##DATA TABLE=(X++(R..R)), XYDATA
0.000000     0.000000    19.536198   -33.949179   -44.799502     0.478793    45.767003
0.001200    33.299676   -18.966129   -45.375197   -17.252978    31.375711    41.220096
0.002400     3.533522   -39.378925   -32.942464    13.509222    44.169116    20.755526
0.003600   -26.872507   -40.634115    -5.088972    35.251036    34.187598    -7.728204
0.004800   -42.406813   -25.384512    22.847994    40.269998    11.541457   -36.289941
0.006000   -41.672669     6.343604    42.410531    26.629612   -23.137382   -43.992290
0.007200   -10.489073    38.067623    42.428864    -7.089047   -45.707356   -30.377455
0.008400    23.610225    46.686091     9.876390   -37.289011   -35.810979     8.413860
0.009600    42.759176    26.949512   -21.734144   -42.808734   -12.752693    32.850686
0.010800    37.598087    -5.080538   -39.468822   -27.027360    16.804182    42.409148
0.012000    17.503685   -29.037795   -38.203376    -0.913070    38.137060    33.432890
0.013200   -15.191579   -41.644455   -17.415923    26.631581    41.850674     5.112041
0.014400   -41.412987   -34.786901    11.524406    43.898344    23.220721   -30.502918
0.015600   -45.250256    -4.118404    42.145348    35.944086   -14.492744   -46.155926
0.016800   -20.446100    27.302247    40.468295     3.343597   -35.695701   -32.569531
0.018000    10.239190    39.697919    20.760264   -21.489701   -36.719229    -5.813045
0.019200    33.836220    32.252751    -8.509456   -37.460824   -24.783822    18.418779
0.020400    40.684605    13.070133   -33.127197   -39.035734     3.789030    40.664726
0.021600    29.896377   -19.661710   -45.531744   -13.004600    30.733889    37.713689
0.022800    -0.446819   -38.978825   -31.968099    19.358035    46.016313    15.717874
0.024000   -32.057153   -36.581800     5.431085    38.756723    29.038050   -18.702045
0.025200   -43.781821   -13.078326    31.719321    36.601933    -2.617966   -37.475274
0.026400   -28.918969    14.565328    40.457021    17.985159   -24.775993   -35.159279
0.027600    -4.549325    34.745871    31.920329    -9.740626   -37.717454   -21.009084
0.028800    23.950456    38.294699     8.335182   -34.597923   -35.940190    11.168706
0.030000    40.978112    22.701727   -24.379899   -42.443828    -5.923806    37.140787
0.031200    33.941530   -10.564902   -42.762618   -22.414219    25.151582    40.791228
0.032400     6.266835   -35.516584   -33.771349    11.403047    41.484730    22.327773
0.033600   -19.982402   -38.265251   -10.927178    29.589546    32.025734    -4.889646
0.034800   -34.136341   -23.299112    16.144663    39.009365    12.494263   -26.422476
0.036000   -33.313589    -0.136917    36.293444    28.888068   -15.354149   -40.402885
0.037200   -19.347609    28.269645    41.495031     0.647550   -38.794289   -31.228583
0.038400    15.642935    42.878073    13.048907   -32.551261   -39.513651     2.001288
0.039600    37.870988    27.362660   -14.498097   -37.190635   -14.412027    25.494825
0.040800    37.213416     3.298725   -34.181978   -27.250759    14.063292    35.969033
0.042000    15.399492   -23.635534   -33.540869    -6.094401    31.225325    30.451011
0.043200    -7.901373   -35.981290   -20.234500    21.459733    38.638141     9.530148
0.044400   -30.234052   -33.785323     6.311112    42.766106    24.970650   -21.876369
0.045600   -39.134630    -9.482364    33.030902    33.615925    -6.279469   -37.876214
0.046800   -21.738719    23.662666    40.146447     8.913870   -32.509937   -34.653137
0.048000     6.578114    36.152137    23.352528   -18.049344   -39.261841    -9.576759
0.049200    31.828922    30.715904    -2.784011   -33.082055   -22.743347    16.573611
0.050400    35.149480    13.630081   -26.400678   -34.846145    -2.353100    33.781761
0.051600    26.554581   -12.942884   -36.350667   -16.779112    25.267079    37.071275
0.052800     2.666490   -34.985485   -31.488128    11.717614    38.885099    17.691816
0.054000   -23.982201   -36.699225    -2.976679    34.810070    28.809605   -12.328996
0.055200   -39.198471   -16.103255    27.045144    36.700462     3.307850   -35.464014
0.056400   -28.504390     9.736636    35.324931    17.218007   -21.721691   -33.190948
0.057600    -6.478553    27.955265    29.897142    -5.867093   -33.686006   -21.953479
0.058800    19.466679    38.183127    11.099434   -28.842354   -31.911842     6.020607
0.060000    35.019301    24.345491   -17.233733   -39.832175   -13.176442    30.535925
0.061200    36.534416    -5.333626   -36.156480   -22.547916    18.142514    37.327602
0.062400    12.116435   -28.892845   -31.253856     4.314814    34.826381    24.754650
0.063600   -17.375689   -36.983372   -12.393190    25.806516    29.639109    -3.149408
0.064800   -33.352131   -23.981124    13.058332    34.203571    13.650863   -22.102632
0.066000   -31.479438    -1.441929    29.305557    27.449772    -7.181144   -34.545254
0.067200   -17.630756    19.592305    34.231813     5.452132   -33.065050   -31.525946
0.068400     9.072663    36.963688    19.799915   -20.954386   -35.519575    -5.579128
0.069600    31.773318    27.175199    -8.873132   -34.353653   -16.969764    21.794909
0.070800    33.251719     5.881319   -30.163751   -27.215328    11.219699    33.875059
0.072000    18.178220   -18.006349   -32.779228    -7.142935    27.477760    27.887662
0.073200    -4.155852   -30.870423   -19.221820    16.043811    30.743795    10.261656
0.074400   -23.883580   -32.356047     1.464403    32.626371    24.482705   -14.554851
0.075600   -34.857977   -13.371626    23.763829    34.248426    -1.155110   -31.836616
0.076800   -24.661522    13.381802    35.134991    12.980989   -24.915662   -35.474643
0.078000    -1.194143    34.642008    26.428299   -13.764513   -35.753012   -12.144691
0.079200    25.090042    30.308856    -1.293021   -29.337288   -22.750381    12.457247
0.080400    34.038094    13.491855   -21.554287   -31.436702    -2.609924    29.361121
0.081600    28.206286    -7.295898   -31.723840   -13.891206    20.238728    33.292793
0.082800     7.975674   -28.304448   -28.848145     5.420517    32.494677    19.500673
0.084000   -17.984964   -35.276802    -9.010477    28.942377    30.534232    -6.025255
0.085200   -37.082749   -21.692507    20.498323    33.568103     7.749405   -29.865994
0.086400   -30.695707     4.006479    30.642623    18.575459   -18.556663   -32.648669
0.087600    -8.461205    24.421243    29.042376    -3.506277   -31.404964   -20.146029
0.088800    14.245263    29.930878    11.906718   -21.871092   -29.975877    -0.882908
0.090000    28.412099    24.432831   -10.865189   -32.820271   -17.279967    22.381547
0.091200    31.929731    -0.050524   -30.990099   -27.151330    11.263552    34.753264
0.092400    13.740278   -22.742851   -33.411535    -1.590596    30.670009    24.331560
0.093600   -11.657647   -32.777867   -14.857101    21.565185    30.711469     1.746606
0.094800   -28.884617   -26.146338     9.663638    34.263409    15.841575   -19.241047
0.096000   -28.648090    -4.844886    25.209362    23.663101    -6.676855   -30.850863
0.097200   -19.304940    14.734774    31.032861    10.862351   -21.873551   -26.956315
0.098400     2.832129    30.435702    21.705922   -15.849237   -32.205401    -9.038152
0.099600    25.139697    29.731924    -2.677742   -31.165746   -21.016033    15.629848
0.100800    34.945560     8.552619   -25.153307   -28.563953     3.961541    32.145576
0.102000    19.733464   -14.375024   -30.130123    -8.808699    22.122872    28.441578
0.103200    -1.318577   -30.694489   -21.679085    12.141938    27.542527    12.527730
0.104400   -18.707407   -28.160798    -2.126516    24.399380    22.025532    -6.912363
0.105600   -31.309528   -16.622212    18.063333    28.748285     4.534078   -26.419129
0.106800   -24.488104     9.037682    30.741390    16.244381   -17.267824   -29.739551
0.108000    -5.372625    29.415371    25.771664    -8.426089   -31.289543   -16.455944
