##TITLE=1D-13C-1-2-5-328-110-"no"-"yes"
##JCAMP-DX=5.01 $$ Magritek Spinsolve SPA1903 2.0.4.4423
##DATA TYPE=NMR FID
##DATA CLASS=NTUPLES
##ORIGIN=SPA1903 at Magritek
##OWNER=Copyright (C) 2025 by Magritek
##LONGDATE=2025/03/17 11:58:47.494
##.OBSERVE FREQUENCY=15.4860999900848
##.OBSERVE NUCLEUS=^13C
##.DELAY=( 20,  2000)
##.ACQUISITION MODE=SIMULTANEOUS
##.FIELD= 1.5
##.AVERAGES= 1
##.DIGITISER RES=16
##.SHIFT REFERENCE=(INTERNAL, Water, 4096, 0)
##$REFERENCE_POINT= 796.529    $$ Referencing label
$$      Distance of the zero axis position (in Hz) from the last data
$$      point (right edge); positive values -> right edge is below 0 Hz
##SPECTROMETER/DATA SYSTEM=Magritek
##SAMPLE DESCRIPTION=solvent=Water
$$ Bruker specific parameters
$$ --------------------------
##$AUNMP=   <proc_1d_nosref>
##$INSTRUM= <Magritek>
##$SI=      8192
##$TD=      8192
##$TDeff=   8192
##$SW=      322.870200
##$BF1=     15.4860999900848
##$SF=      15.4843965190859
##$LB=      0
##$PHC0=    217.0
##$PHC1=    0.0
##$REVERSE= yes
$$ End of Bruker specific parameters
$$ ---------------------------------
##NTUPLES=NMR FID
##VAR_NAME=        TIME,            FID/REAL,            FID/IMAG, PAGE NUMBER
##SYMBOL=             X,                   R,                   I,           N
##VAR_TYPE= INDEPENDENT,           DEPENDENT,           DEPENDENT,        PAGE
##VAR_FORM=        AFFN,                AFFN,                AFFN,        AFFN
##VAR_DIM=         8192,                8192,                8192,           2
##UNITS=        SECONDS,     ARBITRARY UNITS,     ARBITRARY UNITS,            
##FIRST=              0,                   0,                   0,           1
##LAST=    1.638199e+00,-1.5639761249692e-03,   0.336366163851008,           2
##MIN=                0,    -5030.5492592711,   -4881.62865245281,           1
##MAX=     1.638199e+00,    4873.77326376351,    5244.91066253107,           2
##FACTOR=             1,                   1,                   1,           1
##PAGE=N=1
##DATA TABLE=(X++(R..R)), XYDATA
0.000000     0.000000  2105.500756 -3834.017364 -4890.129542   221.582629  4873.773264
0.001200  3488.187269 -2150.069137 -5030.549259 -1692.319022  3617.596841  4390.944065
0.002400  -152.143495 -4376.024335 -3245.560143  1735.329434  4552.446823  1888.864553
0.003600 -3019.182589 -4269.632480  -382.835113  3968.994514  3547.349571 -1177.977387
0.004800 -4536.391677 -2406.412099  2718.189413  4601.468439   826.477266 -4056.427477
0.006000 -3987.922126  1040.599665  4848.547083  2666.253240 -2871.463377 -4884.804341
0.007200  -814.244485  4297.450312  4057.802760 -1239.806988 -4971.491654 -2503.007622
0.008400  3046.891119  4754.537864   577.085885 -4237.209817 -3764.636857  1303.431492
0.009600  4667.366467  2268.004016 -2835.771929 -4377.855681  -587.662380  3808.528349
0.010800  3522.947883  -980.055152 -4224.520534 -2367.498580  2316.638332  4190.097279
0.012000  1007.185644 -3397.320202 -3704.678939   465.432137  4111.283656  2802.741596
0.013200 -1966.615551 -4421.813403 -1464.049215  3392.246684  4127.479316  -270.590539
0.014400 -4397.897101 -3109.121513  2083.905227  4740.113527  1488.214531 -3657.668074
0.015600 -4241.609183   486.038786  4581.392938  2930.889360 -2326.924344 -4618.716150
0.016800 -1178.464965  3635.568471  3891.464350  -623.937751 -4260.080660 -2621.357759
0.018000  2122.015163  4164.157815  1159.263134 -3145.792186 -3610.327375   251.233407
0.019200  3774.810190  2744.334293 -1573.533330 -4001.639001 -1616.314043  2742.108122
0.020400  3836.226389   270.390152 -3713.219431 -3215.524408  1279.920846  4289.636276
0.021600  2022.984552 -2816.932717 -4228.211231  -385.899314  4002.416260  3433.581970
0.022800 -1443.527088 -4543.084928 -1976.525991  3054.434717  4260.874959   157.349665
0.024000 -4099.459841 -3219.000828  1613.166187  4374.893396  1721.195545 -2979.523349
0.025200 -3939.259966   -85.600587  3783.662385  2979.379241 -1400.352820 -3983.162853
0.026400 -1724.319621  2556.510794  3704.894086   402.280221 -3363.078381 -3068.948229
0.027600   932.049086  3820.669018  2090.479214 -2184.097979 -3846.965064  -845.332572
0.028800  3253.093030  3439.280791  -629.371845 -4013.853042 -2469.202557  2182.204949
0.030000  4184.616538  1000.288216 -3479.044035 -3669.440852   727.036390  4258.004023
0.031200  2471.094268 -2418.938480 -4259.078592  -775.823862  3619.588645  3470.753882
0.032400  -949.411254 -4122.340477 -2166.578427  2397.631188  3913.780161   625.169563
0.033600 -3320.694306 -3139.320310   793.492865  3659.009505  2091.068357 -1944.573218
0.034800 -3593.128308  -927.526382  2831.045621  3186.635379  -287.708371 -3434.375824
0.036000 -2465.857643  1518.847697  3735.114754  1411.629891 -2729.201819 -3587.752375
0.037200     5.006381  3676.494713  2823.867271 -1577.951738 -4078.707070 -1496.952635
0.038400  2991.172936  3767.498832  -178.658487 -3895.763779 -2724.602088  1831.145523
0.039600  4056.949943  1220.736577 -3067.460724 -3487.931894   370.295593  3680.773667
0.040800  2424.300896 -1752.634556 -3690.755863 -1115.485797  2727.835556  3188.512894
0.042000  -171.673643 -3257.544878 -2394.722607  1326.662677  3429.910613  1399.118617
0.043200 -2323.635031 -3247.652679  -241.402596  3082.973076  2695.107465  -989.258413
0.044400 -3535.486304 -1778.530919  2228.546113  3554.029177   477.503507 -3240.696991
0.045600 -2979.618887  1005.053046  3785.813773  1874.072351 -2400.440692 -3711.407621
0.046800  -373.484154  3435.329821  2940.758750 -1215.623510 -3811.640628 -1656.769957
0.048000  2499.739008  3505.430879   187.995886 -3291.054213 -2660.232652  1201.146756
0.049200  3485.478138  1492.264423 -2227.552144 -3170.532041  -311.848475  2860.206109
0.050400  2567.447250  -800.421371 -3181.130951 -1734.583095  1784.519089  3172.164795
0.051600   750.995301 -2626.823968 -2881.257968   401.583112  3277.285085  2169.378696
0.052800 -1675.885594 -3526.185136 -1015.287128  2818.333457  3199.661525  -432.601212
0.054000 -3587.573377 -2266.315296  1910.600192  3699.432145   848.560855 -3044.206341
0.055200 -3108.377600   684.932911  3566.807666  1991.013160 -1992.674947 -3431.288484
0.056400  -649.994990  2835.666362  2788.581031  -626.386941 -3189.913047 -1859.766390
0.057600  1658.592330  3112.152752   830.602912 -2407.530615 -2751.285085   200.018435
0.058800  2929.507241  2137.633191 -1254.469795 -3161.711080 -1244.992816  2237.534629
0.060000  3049.962530   115.820021 -3037.230594 -2488.447717  1188.165559  3453.313224
0.061200  1437.364510 -2402.985978 -3284.121430   -78.277072  3255.284066  2543.759976
0.062400 -1359.167402 -3565.613967 -1307.506333  2559.719486  3197.381790  -122.596166
0.063600 -3228.830098 -2314.743811  1418.425360  3341.654954  1144.051901 -2390.802045
0.064800 -2920.835548    99.621144  2901.574218  2150.740981 -1150.534871 -3014.708511
0.066000 -1243.983693  1996.776205  2817.937164   250.449344 -2611.704943 -2333.074402
0.067200   754.701370  2975.084922  1620.048878 -1754.283957 -3055.670338  -601.380662
0.068400  2663.189358  2690.644255  -640.502909 -3245.742432 -1842.999479  1899.661356
0.069600  3318.673152   576.367060 -2915.246129 -2761.624392   859.121515  3382.673666
0.070800  1663.774939 -2100.410981 -3197.572308  -321.444874  2881.804792  2465.815969
0.072000  -948.299495 -3100.900439 -1425.259791  1913.939257  2845.098604   335.607858
0.073200 -2499.148503 -2279.552568   641.084242  2754.202186  1563.244133 -1490.000487
0.074400 -2760.353019  -713.403457  2215.520917  2498.959476  -262.629658 -2758.495110
0.075600 -1921.668311  1309.106710  3011.706533  1007.395632 -2315.106705 -2809.776574
0.076800   209.352149  3011.058753  2071.458409 -1468.112557 -3197.294573  -936.093274
0.078000  2507.111028  2809.629827  -399.007552 -3072.596645 -1897.328449  1600.247874
0.079200  3061.271217   734.936845 -2440.777240 -2566.614348   439.704655  2828.267705
0.080400  1717.227535 -1434.108141 -2768.097604  -754.740503  2107.467992  2404.508157
0.081600  -176.491645 -2520.489417 -1817.442752  1068.551569  2667.299579  1059.184228
0.082800 -1840.405748 -2546.201887  -169.356882  2468.942677  2140.390878  -847.547103
0.084000 -2863.457261 -1362.604364  1868.559773  2835.551526   273.781891 -2679.886935
0.085200 -2326.837813   959.423862  3082.352432  1344.397507 -2077.269702 -2889.064920
0.086400   -86.950880  2795.726420  2166.525260 -1129.931092 -2962.117980 -1105.420619
0.087600  2054.270339  2620.389518    -9.524465 -2539.836359 -1924.937380   970.234378
0.088800  2612.897229  1105.235272 -1679.393863 -2414.100274  -267.507633  2177.164990
0.090000  2022.149020  -557.113047 -2497.415105 -1442.917539  1381.858748  2588.834637
0.091200   649.368536 -2151.067401 -2371.330312   363.921887  2727.090305  1724.528880
0.092400 -1464.042015 -2871.711576  -696.727886  2381.388930  2507.025738  -516.987269
0.093600 -2905.138626 -1647.051903  1659.076412  2859.517481   485.911290 -2437.934856
0.094800 -2287.825583   650.953711  2728.669334  1426.247424 -1577.620670 -2578.331521
0.096000  -429.060310  2168.615161  2086.272683  -476.854286 -2403.416597 -1437.395201
0.097200  1237.370417  2412.487006   681.926929 -1871.625326 -2169.162192   144.505724
0.098400  2300.475439  1697.493052  -987.508654 -2530.881701  -992.974175  1823.258958
0.099600  2438.628873    26.120294 -2468.082681 -1926.099862  1030.376815  2752.821201
0.100800  1051.046100 -1991.445870 -2564.325213    86.357086  2634.006387  1875.941775
0.102000 -1216.790725 -2756.565518  -854.406522  2075.657045  2382.773869  -247.523200
0.103200 -2505.397405 -1636.885502  1193.239326  2482.387639   734.715024 -1836.336950
0.104400 -2122.864885   132.015808  2167.148989  1582.559830  -868.199204 -2260.021701
0.105600  -948.834595  1498.094150  2159.458772   223.624423 -2018.274985 -1847.979017
0.106800   588.899264  2376.312625  1276.317441 -1455.366441 -2449.147287  -397.815716
0.108000  2206.386671  2088.954158  -661.098928 -2621.864336 -1311.423148  1663.394788
