##TITLE=1D-13C-1-2-5-328-110-"no"-"yes"
##JCAMP-DX=5.01 $$ Magritek Spinsolve SPA1903 2.0.4.4423
##DATA TYPE=NMR FID
##DATA CLASS=NTUPLES
##ORIGIN=SPA1903 at Magritek
##OWNER=Copyright (C) 2025 by Magritek
##LONGDATE=2025/03/17 11:59:44.964
##.OBSERVE FREQUENCY=15.4860999900848
##.OBSERVE NUCLEUS=^13C
##.DELAY=( 20,  2000)
##.ACQUISITION MODE=SIMULTANEOUS
##.FIELD= 1.5
##.AVERAGES= 1
##.DIGITISER RES=16
##.SHIFT REFERENCE=(INTERNAL, Water, 4096, 0)
##$REFERENCE_POINT= 796.529    $$ Referencing label
$$      Distance of the zero axis position (in Hz) from the last data
$$      point (right edge); positive values -> right edge is below 0 Hz
##SPECTROMETER/DATA SYSTEM=Magritek
##SAMPLE DESCRIPTION=solvent=Water
$$ Bruker specific parameters
$$ --------------------------
##$AUNMP=   <proc_1d_nosref>
##$INSTRUM= <Magritek>
##$SI=      8192
##$TD=      8192
##$TDeff=   8192
##$SW=      322.870200
##$BF1=     15.4860999900848
##$SF=      15.4843965190859
##$LB=      0
##$PHC0=    216.9
##$PHC1=    0.0
##$REVERSE= yes
$$ End of Bruker specific parameters
$$ ---------------------------------
##NTUPLES=NMR FID
##VAR_NAME=        TIME,            FID/REAL,            FID/IMAG, PAGE NUMBER
##SYMBOL=             X,                   R,                   I,           N
##VAR_TYPE= INDEPENDENT,           DEPENDENT,           DEPENDENT,        PAGE
##VAR_FORM=        AFFN,                AFFN,                AFFN,        AFFN
##VAR_DIM=         8192,                8192,                8192,           2
##UNITS=        SECONDS,     ARBITRARY UNITS,     ARBITRARY UNITS,            
##FIRST=              0,                   0,                   0,           1
##LAST=    1.638199e+00,  -0.533923116602866,    0.56825475192694,           2
##MIN=                0,   -3051.35613640662,   -2980.08052262582,           1
##MAX=     1.638199e+00,    2947.82864209905,    3172.95355958246,           2
##FACTOR=             1,                   1,                   1,           1
##PAGE=N=1
##DATA TABLE=(X++(R..R)), XYDATA
0.000000     0.000000  1280.890900 -2307.509485 -2960.511141   118.373355  2942.916902
0.001200  2117.991402 -1303.334734 -3051.356136 -1031.455032  2186.086560  2660.703610
0.002400   -79.126121 -2646.845047 -1978.066336  1038.729572  2759.156332  1148.741600
0.003600 -1823.542559 -2588.065040  -240.713073  2401.201797  2161.614747  -699.632420
0.004800 -2746.688687 -1477.337086  1632.745631  2797.801719   526.731149 -2450.198114
0.006000 -2441.063032   605.058069  2947.828642  1646.153665 -1725.679496 -2979.985133
0.007200  -519.294062  2606.373439  2489.281906  -729.312489 -3025.831074 -1546.427433
0.008400  1835.811771  2909.889108   377.029066 -2570.671540 -2312.023467   772.365234
0.009600  2852.067736  1409.399151 -1711.581065 -2683.435705  -386.685161  2314.583238
0.010800  2172.188129  -571.511959 -2583.162667 -1473.882241  1390.585544  2565.492898
0.012000   646.779668 -2058.444991 -2286.675795   251.277679  2516.003829  1750.915391
0.013200 -1181.693644 -2717.678234  -931.707397  2051.343062  2547.023932  -123.137310
0.014400 -2690.044530 -1943.412891  1246.901055  2922.304254   955.721758 -2220.590455
0.015600 -2627.480684   262.274737  2804.691739  1833.233368 -1396.182828 -2845.108600
0.016800  -770.148164  2213.147431  2420.641405  -340.196572 -2606.617022 -1644.080056
0.018000  1272.635501  2571.534685   763.225821 -1911.115167 -2245.189802   111.335045
0.019200  2314.393949  1726.330115  -927.942867 -2472.174604 -1050.424589  1658.204312
0.020400  2392.597574   211.442918 -2275.424552 -2018.800470   738.745240  2650.263906
0.021600  1303.543974 -1701.763916 -2635.193432  -291.399822  2457.201818  2160.799032
0.022800  -846.834457 -2810.906521 -1271.632309  1854.346900  2659.971860   153.686711
0.024000 -2510.655923 -2039.447257   942.562641  2706.958378  1120.244474 -1804.097823
0.025200 -2462.044557  -117.010598  2314.577541  1882.133175  -809.087975 -2466.681743
0.026400 -1127.461474  1543.179365  2322.050999   316.424941 -2058.470665 -1947.529607
0.027600   517.287549  2363.371728  1356.337154 -1310.203494 -2414.997858  -589.777938
0.028800  1996.772417  2179.753544  -332.693510 -2487.855583 -1599.715521  1305.219822
0.030000  2624.975190   685.671743 -2134.258058 -2325.002665   396.109595  2644.472365
0.031200  1593.420274 -1454.718482 -2672.042961  -555.506241  2218.270165  2204.831228
0.032400  -523.053883 -2559.821912 -1410.992845  1440.470370  2460.775729   462.243246
0.033600 -2024.769706 -1996.199216   420.549915  2273.797540  1368.347783 -1151.353656
0.034800 -2259.419859  -662.343012  1724.423397  2040.755357  -100.268863 -2134.761550
0.036000 -1614.684985   893.635071  2362.236316   958.866617 -1669.433314 -2288.048095
0.037200   -72.363461  2286.528696  1836.859429  -920.892236 -2572.089838 -1014.975237
0.038400  1833.065670  2400.696825   -35.008441 -2422.591448 -1774.870435  1077.778742
0.039600  2558.045023   849.971122 -1877.762782 -2237.726774   151.198621  2289.418235
0.040800  1584.980722 -1026.377418 -2327.330898  -784.359574  1662.077849  2049.806594
0.042000   -22.024502 -2027.310774 -1578.576189   751.945621  2168.047216   972.384719
0.043200 -1405.502174 -2093.071385  -243.883860  1919.674087  1773.662482  -544.590065
0.044400 -2239.411604 -1211.243372  1342.285117  2281.440339   398.400471 -2015.926117
0.045600 -1956.067492   556.164175  2406.829109  1276.187597 -1457.825027 -2386.742906
0.046800  -332.112422  2139.692851  1933.259139  -678.657561 -2417.250705 -1138.100566
0.048000  1514.090382  2254.058440   214.372980 -2041.674684 -1750.994513   664.525700
0.049200  2201.368736  1046.529341 -1332.199840 -2050.587359  -299.568637  1771.463916
0.050400  1700.528688  -405.055393 -2016.708541 -1201.056317  1052.608324  2051.177556
0.051600   586.026581 -1626.575862 -1904.089475   161.039796  2082.064843  1471.887199
0.052800  -985.455969 -2276.823303  -744.596694  1751.614381  2099.167318  -184.495709
0.054000 -2270.133962 -1527.333355  1137.170458  2379.061563   644.825777 -1881.269572
0.055200 -2035.258444   332.612054  2248.929669  1354.679528 -1179.192282 -2205.998943
0.056400  -522.056796  1749.540248  1842.225364  -281.340324 -2006.040712 -1283.377743
0.057600   957.249037  2012.230727   650.905904 -1476.609420 -1824.977168    20.183313
0.058800  1849.457773  1455.342962  -706.249747 -2046.095061  -901.740629  1371.043228
0.060000  2008.053297   179.644756 -1924.180900 -1684.623618   667.463179  2228.082948
0.061200  1025.687574 -1476.882544 -2162.758540  -153.297236  2061.034024  1711.640986
0.062400  -775.114500 -2289.477836  -944.642320  1561.663499  2099.385051    36.847346
0.063600 -2034.584163 -1568.024780   803.706581  2139.177922   835.418075 -1449.761935
0.064800 -1921.327213   -69.700028  1820.996539  1473.300169  -626.273497 -1940.665018
0.066000  -916.198500  1198.671066  1863.122921   288.438646 -1637.181386 -1598.415680
0.067200   372.489065  1926.050985  1160.229777 -1051.831432 -2017.346231  -506.960493
0.068400  1674.103389  1815.639370  -309.340355 -2094.220170 -1291.442720  1141.686197
0.069600  2178.367950   485.057029 -1830.406663 -1852.173012   442.013380  2168.248873
0.070800  1177.953984 -1258.647219 -2095.572406  -333.542575  1796.390531  1669.544880
0.072000  -485.961095 -1989.469776 -1041.970828  1138.088796  1880.330570   352.822621
0.073200 -1552.175361 -1567.910293   282.353646  1770.365998  1139.433383  -859.452958
0.074400 -1836.056359  -599.507975  1381.640559  1712.169778   -46.950527 -1784.185891
0.075600 -1366.537372   751.697271  1993.585416   777.790690 -1443.563672 -1898.064131
0.076800    15.389143  1936.385809  1455.341986  -847.104253 -2101.881537  -729.652608
0.078000  1553.250087  1892.238709  -126.324253 -1970.056323 -1348.864236   923.793389
0.079200  2010.199403   612.104166 -1502.404422 -1735.359943   149.250094  1805.778353
0.080400  1237.307828  -808.541283 -1830.104250  -636.118926  1290.454825  1642.198876
0.081600    26.154311 -1609.788688 -1307.271214   567.828753  1766.859242   836.034470
0.082800 -1120.470888 -1741.631267  -249.757672  1583.523036  1510.084319  -439.801300
0.084000 -1890.035879 -1022.000927  1145.947038  1925.939885   309.552347 -1715.286696
0.085200 -1625.035450   511.534491  2024.818374  1004.585658 -1272.094131 -1943.831973
0.086400  -189.364253  1777.477988  1516.653291  -610.268020 -1941.457650  -855.045260
0.087600  1239.209825  1762.562008   144.060546 -1602.366989 -1371.106097   493.259687
0.088800  1714.927516   864.187087  -996.160145 -1647.364414  -332.996905  1375.992489
0.090000  1438.982517  -232.577763 -1645.338182 -1086.960532   808.719896  1758.382992
0.091200   562.563484 -1368.168876 -1656.478420   115.645930  1789.661979  1255.862683
0.092400  -866.551073 -1934.362748  -588.792661  1509.472821  1727.350610  -214.150753
0.093600 -1889.158345 -1199.755664   978.000236  1910.465850   463.479372 -1529.769810
0.094800 -1598.389964   284.538322  1768.851871  1060.251074  -914.068409 -1732.452175
0.096000  -437.729262  1347.618370  1470.342250  -161.364768 -1567.461257 -1080.998541
0.097200   698.724012  1626.372500   599.573455 -1153.089684 -1525.409191   -49.374997
0.098400  1508.472486  1253.171299  -541.920113 -1715.177081  -796.159408  1131.895667
0.099600  1695.360380   154.293566 -1611.852305 -1392.694867   573.713074  1846.843350
0.100800   820.947188 -1244.787744 -1768.889776   -78.716169  1702.869388  1345.130253
0.102000  -680.426209 -1841.731268  -703.155627  1279.632024  1647.619384    -7.580645
0.103200 -1608.365374 -1203.569698   648.333298  1657.108145   641.729135 -1113.573418
0.104400 -1486.997312   -78.944600  1393.691867  1178.815177  -439.533407 -1527.823316
0.105600  -790.171606   900.334600  1518.219608   303.336782 -1313.653834 -1364.414041
0.106800   260.950576  1606.864124   993.412624  -885.651418 -1705.764316  -407.214097
0.108000  1431.642578  1502.883343  -313.786665 -1753.639441 -1002.140208  1012.875477
