##TITLE=1D-13C-1-2-5-328-110-"no"-"yes"
##JCAMP-DX=5.01 $$ Magritek Spinsolve SPA1903 2.0.4.4423
##DATA TYPE=NMR FID
##DATA CLASS=NTUPLES
##ORIGIN=SPA1903 at Magritek
##OWNER=Copyright (C) 2025 by Magritek
##LONGDATE=2025/03/17 12:00:32.162
##.OBSERVE FREQUENCY=15.4860999900848
##.OBSERVE NUCLEUS=^13C
##.DELAY=( 20,  2000)
##.ACQUISITION MODE=SIMULTANEOUS
##.FIELD= 1.5
##.AVERAGES= 1
##.DIGITISER RES=16
##.SHIFT REFERENCE=(INTERNAL, Water, 4096, 0)
##$REFERENCE_POINT= 796.529    $$ Referencing label
$$      Distance of the zero axis position (in Hz) from the last data
$$      point (right edge); positive values -> right edge is below 0 Hz
##SPECTROMETER/DATA SYSTEM=Magritek
##SAMPLE DESCRIPTION=solvent=Water
$$ Bruker specific parameters
$$ --------------------------
##$AUNMP=   <proc_1d_nosref>
##$INSTRUM= <Magritek>
##$SI=      8192
##$TD=      8192
##$TDeff=   8192
##$SW=      322.870200
##$BF1=     15.4860999900848
##$SF=      15.4843965190859
##$LB=      0
##$PHC0=    216.9
##$PHC1=    0.0
##$REVERSE= yes
$$ End of Bruker specific parameters
$$ ---------------------------------
##NTUPLES=NMR FID
##VAR_NAME=        TIME,            FID/REAL,            FID/IMAG, PAGE NUMBER
##SYMBOL=             X,                   R,                   I,           N
##VAR_TYPE= INDEPENDENT,           DEPENDENT,           DEPENDENT,        PAGE
##VAR_FORM=        AFFN,                AFFN,                AFFN,        AFFN
##VAR_DIM=         8192,                8192,                8192,           2
##UNITS=        SECONDS,     ARBITRARY UNITS,     ARBITRARY UNITS,            
##FIRST=              0,                   0,                   0,           1
##LAST=    1.638199e+00,  -0.578431278528184,   0.034056466595683,           2
##MIN=                0,   -2036.29313606816,    -2002.4633510773,           1
##MAX=     1.638199e+00,    1973.52103823623,     2112.6408282054,           2
##FACTOR=             1,                   1,                   1,           1
##PAGE=N=1
##DATA TABLE=(X++(R..R)), XYDATA
0.000000     0.000000   854.060026 -1539.871554 -1973.012004    81.906642  1966.398340
0.001200  1416.441719  -862.388162 -2036.293136  -688.497910  1457.325904  1774.269372
0.002400   -52.618902 -1769.657926 -1324.395678   692.952175  1837.859384   769.653976
0.003600 -1209.962311 -1730.516853  -175.218148  1598.240395  1457.910012  -455.518456
0.004800 -1842.358725  -995.983910  1088.110185  1873.730290   359.794646 -1636.487124
0.006000 -1644.125326   399.390762  1973.521038  1105.335294 -1163.381334 -2004.986316
0.007200  -357.529134  1744.558582  1679.374528  -485.826280 -2031.852690 -1045.568432
0.008400  1227.257239  1953.815070   262.564370 -1721.372291 -1557.480550   507.991165
0.009600  1902.482605   952.330201 -1138.282859 -1798.972735  -270.436851  1546.742076
0.010800  1462.950277  -369.163487 -1724.819448  -995.131151   921.603961  1719.713722
0.012000   448.450961 -1372.757612 -1546.705772   151.637264  1684.392122  1192.744715
0.013200  -778.534871 -1836.209916  -642.597941  1374.215362  1724.242752   -63.168954
0.014400 -1811.345737 -1322.158300   832.553836  1967.607391   646.739853 -1493.301287
0.015600 -1775.336617   161.662358  1882.862335  1247.240703  -918.770615 -1918.574832
0.016800  -532.713123  1480.815374  1630.562730  -211.533199 -1746.966145 -1125.304440
0.018000   833.190380  1741.063236   539.391570 -1276.227576 -1521.246707    60.417758
0.019200  1549.598242  1184.507209  -603.160218 -1669.115353  -728.136813  1102.486390
0.020400  1630.215415   169.320294 -1533.141767 -1384.375197   477.106843  1795.465663
0.021600   904.592900 -1141.127239 -1795.438348  -213.151479  1660.643164  1475.554901
0.022800  -551.850136 -1900.869183  -877.314236  1240.025910  1803.465761   125.953535
0.024000 -1686.027024 -1391.204136   616.287938  1830.755039   778.400217 -1202.872500
0.025200 -1667.671395  -102.307320  1553.344276  1293.549681  -525.030508 -1667.985481
0.026400  -788.759755  1018.559775  1577.030389   237.276133 -1371.719237 -1334.693878
0.027600   313.880858  1591.363365   944.944024  -862.144399 -1641.294870  -429.126490
0.028800  1336.442912  1498.577308  -194.505829 -1688.496732 -1109.843883   858.086841
0.030000  1788.882414   498.028600 -1434.131463 -1598.207010   242.249114  1795.236383
0.031200  1103.135700  -960.169702 -1811.557799  -406.099501  1487.488079  1508.452154
0.032400  -329.149404 -1720.105139  -980.709438   944.108792  1667.499343   345.790851
0.033600 -1353.287890 -1376.669322   249.229719  1533.670644   956.511519  -752.583085
0.034800 -1540.185811  -481.031482  1154.060124  1407.996742   -35.867485 -1444.409138
0.036000 -1124.146816   573.945751  1612.481160   686.652311 -1117.375444 -1576.354365
0.037200   -86.302313  1543.582335  1269.889119  -605.960635 -1752.608882  -720.036912
0.038400  1224.373202  1645.824391     4.909529 -1636.670177 -1231.993135   701.167405
0.039600  1737.056268   604.875998 -1250.280330 -1530.018489    66.408359  1543.379207
0.040800  1104.277580  -668.386775 -1585.661827  -568.381553  1100.589991  1411.389439
0.042000    30.577830 -1361.026888 -1101.283759   476.421173  1476.742245   697.523662
0.043200  -931.153440 -1444.895112  -212.854943  1292.420343  1246.833476  -335.702838
0.044400 -1535.353395  -864.741856   887.821008  1581.979263   312.549032 -1367.332757
0.045600 -1364.643130   339.110344  1640.519128   901.868568  -971.217116 -1640.869358
0.046800  -263.805247  1444.836219  1340.172781  -428.397908 -1644.652503  -812.826883
0.048000  1001.050475  1548.731005   187.276721 -1371.444803 -1221.436136   407.833285
0.049200  1497.765922   753.849732  -871.906047 -1409.149496  -253.422544  1187.270150
0.050400  1191.849211  -232.928615 -1369.282714  -864.655200   685.365364  1425.163510
0.051600   447.413796 -1090.992673 -1326.755592    63.254919  1419.170489  1047.990413
0.052800  -643.394231 -1572.990909  -552.894520  1180.460315  1465.587527   -86.824632
0.054000 -1551.656263 -1076.245308   744.885967  1635.479942   480.377595 -1262.515738
0.055200 -1412.452069   185.693682  1526.187718   968.129052  -764.910632 -1515.946784
0.056400  -403.975335  1166.729690  1280.924061  -143.385406 -1359.786427  -919.434456
0.057600   614.165347  1387.823718   493.875757  -985.162668 -1277.428419   -30.718790
0.058800  1264.266396  1044.007512  -450.222610 -1417.639291  -666.545549   915.670118
0.060000  1413.036477   170.726232 -1311.771323 -1191.695636   419.785270  1537.041385
0.061200   750.774358  -983.692667 -1502.506449  -150.046131  1403.960500  1208.702571
0.062400  -494.473660 -1571.196306  -691.977854  1043.878985  1460.660540    69.005489
0.063600 -1371.817589 -1109.183445   506.992012  1470.611344   629.089805  -957.453717
0.064800 -1342.415589   -97.590467  1228.701194  1055.816272  -378.596446 -1333.331156
0.066000  -682.582405   781.933945  1303.633396   252.081612 -1106.517658 -1139.074180
0.067200   203.610382  1328.680675   843.666118  -687.900089 -1414.106687  -399.937674
0.068400  1138.962408  1291.206685  -166.573261 -1447.972692  -938.995255   754.623628
0.069600  1517.248918   379.882685 -1242.727137 -1309.701524   258.582047  1489.056630
0.070800   852.756097  -832.416267 -1455.225011  -280.834958  1211.839789  1184.065442
0.072000  -282.743013 -1364.073018  -766.174110   734.720965  1311.123099   301.292246
0.073200 -1045.257667 -1118.657369   143.192305  1218.191577   838.505612  -548.877818
0.074400 -1282.954445  -474.010973   923.088546  1220.415995    25.514224 -1227.638018
0.075600  -993.452960   481.104734  1391.725881   589.184524  -966.985421 -1347.459050
0.076800   -41.349999  1329.381853  1043.822381  -545.225788 -1465.595267  -556.583514
0.078000  1046.030818  1336.906863   -32.498641 -1350.646057  -974.240877   593.171188
0.079200  1401.603268   487.273931 -1004.290724 -1227.948910    46.589901  1234.877575
0.080400   908.194614  -503.356471 -1273.738599  -504.441780   856.679656  1169.828819
0.081600    80.605604 -1102.521841  -955.970709   342.182713  1231.613800   642.663100
0.082800  -738.186310 -1243.703507  -229.254821  1086.302888  1095.470787  -254.305902
0.084000 -1321.195855  -763.292853   762.324945  1364.577148   271.254627 -1178.274372
0.085200 -1164.616789   310.119585  1403.354559   742.469096  -843.830370 -1366.386775
0.086400  -188.773269  1206.611882  1089.321687  -365.748070 -1337.274642  -650.163121
0.087600   812.054032  1244.027226   165.440877 -1083.042120  -994.225793   282.392870
0.088800  1188.818857   663.319609  -640.074207 -1169.607958  -301.113286   932.708761
0.090000  1046.310943  -100.809711 -1146.818746  -814.857070   526.865366  1256.533593
0.091200   454.858229  -924.215435 -1191.071298    27.822234  1243.881386   926.307491
0.092400  -559.443426 -1367.000432  -470.450191  1018.455915  1237.885108   -93.934035
0.093600 -1304.686605  -882.450319   633.435649  1339.278380   382.756306 -1025.488167
0.094800 -1145.541431   135.560899  1220.254358   794.914952  -579.701245 -1213.122154
0.096000  -370.694906   899.840039  1066.134084   -46.825792 -1081.219220  -811.504405
0.097200   427.497273  1150.557240   486.195480  -770.784727 -1108.492815  -102.517302
0.098400  1043.424633   926.759832  -328.480131 -1210.502991  -616.568943   759.963083
0.099600  1217.039435   169.628012 -1112.008922 -1022.232501   351.544711  1302.854192
0.100800   633.540762  -832.335265 -1257.183496  -111.152699  1171.819000   990.346502
0.102000  -417.414973 -1285.688359  -551.927311   845.069143  1177.302515    59.986726
0.103200 -1095.908933  -890.452246   386.377631  1159.578570   511.573665  -729.215060
0.104400 -1069.156971  -134.332335   946.108703   886.785176  -238.260626 -1075.991970
0.105600  -622.026903   583.588459  1102.726057   288.532044  -898.920085 -1009.155212
0.106800   126.585890  1133.543438   756.994055  -575.025040 -1224.873977  -350.174413
0.108000   983.204559  1097.881387  -164.987661 -1227.664542  -758.121927   659.061343
