##TITLE=1D-13C-1-2-5-328-110-"no"-"yes"
##JCAMP-DX=5.01 $$ Magritek Spinsolve SPA1903 2.0.4.4423
##DATA TYPE=NMR FID
##DATA CLASS=NTUPLES
##ORIGIN=SPA1903 at Magritek
##OWNER=Copyright (C) 2025 by Magritek
##LONGDATE=2025/03/17 11:59:48.382
##.OBSERVE FREQUENCY=15.4860999900848
##.OBSERVE NUCLEUS=^13C
##.DELAY=( 20,  2000)
##.ACQUISITION MODE=SIMULTANEOUS
##.FIELD= 1.5
##.AVERAGES= 1
##.DIGITISER RES=16
##.SHIFT REFERENCE=(INTERNAL, Water, 4096, 0)
##$REFERENCE_POINT= 796.529    $$ Referencing label
$$      Distance of the zero axis position (in Hz) from the last data
$$      point (right edge); positive values -> right edge is below 0 Hz
##SPECTROMETER/DATA SYSTEM=Magritek
##SAMPLE DESCRIPTION=solvent=Water
$$ Bruker specific parameters
$$ --------------------------
##$AUNMP=   <proc_1d_nosref>
##$INSTRUM= <Magritek>
##$SI=      8192
##$TD=      8192
##$TDeff=   8192
##$SW=      322.870200
##$BF1=     15.4860999900848
##$SF=      15.4843965190859
##$LB=      0
##$PHC0=    216.7
##$PHC1=    0.0
##$REVERSE= yes
$$ End of Bruker specific parameters
$$ ---------------------------------
##NTUPLES=NMR FID
##VAR_NAME=        TIME,            FID/REAL,            FID/IMAG, PAGE NUMBER
##SYMBOL=             X,                   R,                   I,           N
##VAR_TYPE= INDEPENDENT,           DEPENDENT,           DEPENDENT,        PAGE
##VAR_FORM=        AFFN,                AFFN,                AFFN,        AFFN
##VAR_DIM=         8192,                8192,                8192,           2
##UNITS=        SECONDS,     ARBITRARY UNITS,     ARBITRARY UNITS,            
##FIRST=              0,                   0,                   0,           1
##LAST=    1.638199e+00,  -0.544976319562279,   0.486052472185378,           2
##MIN=                0,    -2953.5069088863,   -2894.54451402491,           1
##MAX=     1.638199e+00,    2863.99417701036,    3073.83209567817,           2
##FACTOR=             1,                   1,                   1,           1
##PAGE=N=1
##DATA TABLE=(X++(R..R)), XYDATA
0.000000     0.000000  1242.457114 -2239.555555 -2880.011925   118.963485  2861.441157
0.001200  2051.667962 -1266.143636 -2953.506909  -994.739910  2115.436860  2578.230761
0.002400   -75.280869 -2558.401275 -1919.427596   996.902635  2671.606761  1123.157228
0.003600 -1760.639772 -2513.085471  -246.979347  2312.850259  2095.138371  -666.907854
0.004800 -2662.516521 -1441.343833  1577.626540  2717.860939   521.093303 -2375.815336
0.006000 -2377.227236   581.992490  2863.994177  1606.789644 -1675.840291 -2900.641348
0.007200  -512.760627  2525.807237  2426.076988  -703.163675 -2937.902861 -1505.856316
0.008400  1784.358563  2825.149640   372.913833 -2490.448801 -2242.766714   746.946002
0.009600  2761.028947  1372.396208 -1646.842367 -2597.114916  -389.881190  2233.982241
0.010800  2111.934650  -540.104594 -2489.933688 -1435.076896  1336.827715  2493.027776
0.012000   643.000126 -1981.779993 -2220.138790   231.034200  2437.344411  1711.278619
0.013200 -1130.266870 -2639.313621  -917.342758  1995.293424  2489.412151  -110.792596
0.014400 -2616.156800 -1891.816159  1201.678054  2838.317900   932.765237 -2158.743161
0.015600 -2555.485378   250.193268  2721.321131  1786.205994 -1346.901450 -2761.927674
0.016800  -752.501610  2138.808145  2341.939909  -326.404008 -2523.366328 -1602.014518
0.018000  1220.585492  2493.260982   742.055725 -1846.093305 -2175.362241    91.792177
0.019200  2228.130190  1685.995871  -880.104894 -2394.117494 -1025.189264  1599.654220
0.020400  2326.238478   223.824540 -2200.843319 -1974.199315   706.364498  2572.014552
0.021600  1273.471049 -1637.167149 -2568.365122  -297.609377  2381.469400  2102.981571
0.022800  -813.664431 -2731.035173 -1242.265560  1789.888652  2585.448890   153.166079
0.024000 -2434.451099 -1976.268629   911.594118  2630.695628  1089.685497 -1744.226817
0.025200 -2384.557900  -115.456637  2235.929724  1830.692123  -776.710988 -2394.948691
0.026400 -1104.469103  1484.891727  2253.503264   314.043244 -1989.460531 -1889.898947
0.027600   487.656170  2288.284740  1329.232325 -1253.050046 -2344.588022  -586.036490
0.028800  1930.987580  2122.526191  -308.544474 -2414.031412 -1566.987441  1258.463806
0.030000  2554.400488   676.071053 -2070.898621 -2260.970580   374.993158  2563.148858
0.031200  1559.799673 -1399.578747 -2587.112156  -541.510998  2150.218269  2146.956479
0.032400  -502.543561 -2481.421924 -1372.664198  1383.016653  2378.533223   456.268205
0.033600 -1954.482776 -1943.473777   396.843748  2201.033367  1336.040880 -1102.268222
0.034800 -2193.397926  -654.468176  1661.206300  1982.207600   -83.051610 -2071.376668
0.036000 -1574.364141   849.877249  2292.708586   942.601656 -1611.581284 -2228.322857
0.037200   -87.754202  2214.000570  1795.317747  -887.196572 -2500.207095  -995.935246
0.038400  1768.983228  2332.194427   -28.431135 -2348.412206 -1723.996684  1034.991971
0.039600  2477.922570   833.913205 -1814.025875 -2169.312821   141.811115  2214.206035
0.040800  1538.101614  -982.023345 -2249.859317  -775.528650  1595.733986  1986.734690
0.042000   -15.376795 -1958.875735 -1535.543745   713.867464  2097.003382   948.407776
0.043200 -1343.924224 -2028.844986  -258.105030  1857.870713  1733.779188  -513.843579
0.044400 -2174.332276 -1185.181915  1302.996337  2221.382748   396.801296 -1957.297537
0.045600 -1908.488028   526.128583  2338.863448  1243.496084 -1413.411073 -2318.326512
0.046800  -326.788103  2073.071852  1871.865623  -648.617324 -2336.469393 -1108.292190
0.048000  1461.730207  2184.725780   212.993821 -1975.017663 -1702.235087   631.502160
0.049200  2130.880967  1018.262178 -1286.584852 -1987.796768  -306.285367  1713.068250
0.050400  1658.947457  -380.939767 -1948.035910 -1174.196709  1013.682801  1993.481342
0.051600   577.725858 -1570.986302 -1854.410155   142.982018  2019.429232  1435.007557
0.052800  -952.275783 -2216.151851  -738.319767  1699.016944  2049.325347  -171.381161
0.054000 -2207.227362 -1491.939348  1097.105309  2314.088166   633.124522 -1823.824341
0.055200 -1983.818069   315.645237  2182.678636  1324.876704 -1139.390135 -2149.826707
0.056400  -513.921315  1693.735531  1786.541238  -271.710270 -1942.637293 -1250.084027
0.057600   920.078833  1948.872511   637.852831 -1422.853088 -1776.441616     7.385046
0.058800  1792.723174  1423.677080  -678.816501 -1992.454536  -893.471226  1327.012385
0.060000  1963.216866   185.921186 -1867.489291 -1644.263913   634.794697  2163.009566
0.061200  1007.589742 -1427.629517 -2103.038499  -162.067635  1998.157253  1672.930683
0.062400  -745.056866 -2225.562002  -921.189248  1513.544790  2041.989861    47.396767
0.063600 -1969.511016 -1526.552535   775.580204  2072.693484   819.985418 -1401.043101
0.064800 -1867.564105   -69.766585  1762.047008  1437.889530  -593.407307 -1881.530994
0.066000  -905.251798  1153.203093  1819.956739   296.051816 -1585.982258 -1566.475861
0.067200   352.010280  1874.903536  1139.217069 -1011.037874 -1967.960385  -506.534959
0.068400  1629.297501  1779.800110  -290.518632 -2035.075884 -1268.137097  1104.234324
0.069600  2123.641314   479.266841 -1775.678323 -1812.215381   418.070581  2112.377345
0.070800  1155.912082 -1217.546503 -2039.500538  -327.450320  1743.792849  1625.683416
0.072000  -461.814046 -1934.663720 -1020.627651  1090.463391  1825.557327   361.876279
0.073200 -1499.289262 -1523.622734   266.934325  1717.823060  1112.754828  -825.725261
0.074400 -1783.008886  -596.455760  1330.374091  1666.629839   -28.774606 -1732.180629
0.075600 -1341.106523   721.201933  1946.736396   773.885251 -1395.670308 -1853.737410
0.076800     5.316129  1887.877505  1430.821482  -817.656252 -2052.882245  -719.471316
0.078000  1509.884027  1850.104033  -112.639021 -1912.773423 -1315.763099   895.278575
0.079200  1959.438762   601.429394 -1457.377799 -1694.773922   129.008896  1755.367506
0.080400  1210.871513  -773.819718 -1773.424087  -625.766874  1246.659812  1603.458484
0.081600    37.775245 -1562.741525 -1277.764092   546.199848  1718.014421   828.572633
0.082800 -1080.063630 -1709.013756  -259.166265  1540.233942  1479.549117  -418.257095
0.084000 -1847.328260 -1003.369205  1107.972127  1878.104412   317.199473 -1668.224237
0.085200 -1589.509080   487.527890  1968.561365   981.311423 -1226.192809 -1896.357845
0.086400  -198.035144  1723.108354  1478.531253  -586.393779 -1884.821333  -843.074785
0.087600  1193.007922  1720.193331   154.975683 -1544.943345 -1339.474180   459.214186
0.088800  1662.572154   856.338962  -950.664809 -1601.281907  -338.751522  1331.625276
0.090000  1414.039004  -208.606548 -1600.213701 -1072.868508   776.357632  1724.114878
0.091200   564.463853 -1326.665432 -1622.633744    93.526138  1738.563514  1235.605402
0.092400  -830.118841 -1888.046007  -586.320287  1465.888538  1692.884194  -198.081453
0.093600 -1840.809630 -1180.007406   946.630034  1863.025845   465.937975 -1476.608604
0.094800 -1557.135750   268.229748  1714.123514  1038.648188  -879.256546 -1685.316071
0.096000  -443.118401  1301.450709  1435.854940  -146.126386 -1520.692892 -1061.579249
0.097200   660.807734  1587.029479   603.126328 -1115.266501 -1494.785005   -67.045267
0.098400  1461.822465  1230.117060  -510.877068 -1668.525163  -793.367729  1096.245899
0.099600  1661.023309   166.554481 -1562.215262 -1368.972606   542.464281  1800.990309
0.100800   816.149331 -1196.301050 -1727.925742   -95.580155  1656.457152  1327.980596
0.102000  -647.095755 -1788.381407  -693.799978  1232.086415  1604.628003     4.778737
0.103200 -1557.676035 -1179.941021   615.150810  1611.133666   635.428314 -1069.360307
0.104400 -1450.957647   -96.530645  1344.657553  1159.875003  -405.445605 -1480.140130
0.105600  -782.597742   862.453101  1491.201541   323.646800 -1264.858252 -1332.697625
0.106800   241.434963  1567.773070   980.737262  -847.404238 -1665.548174  -412.150316
0.108000  1386.937209  1471.217713  -289.992413 -1707.125467  -991.445197   971.560549
