##TITLE=1D-13C-1-5-5-328-110-"no"-"yes"
##JCAMP-DX=5.01 $$ Magritek Spinsolve SPA1903 2.0.4.4423
##DATA TYPE=NMR FID
##DATA CLASS=NTUPLES
##ORIGIN=SPA1903 at Magritek
##OWNER=Copyright (C) 2025 by Magritek
##LONGDATE=2025/02/12 14:29:38.954
##.OBSERVE FREQUENCY=15.4861775226891
##.OBSERVE NUCLEUS=^13C
##.DELAY=( 20,  5000)
##.ACQUISITION MODE=SIMULTANEOUS
##.FIELD= 1.5
##.AVERAGES= 1
##.DIGITISER RES=16
##.SHIFT REFERENCE=(INTERNAL, Water, 4096, 0)
##$REFERENCE_POINT= 796.520    $$ Referencing label
$$      Distance of the zero axis position (in Hz) from the last data
$$      point (right edge); positive values -> right edge is below 0 Hz
##SPECTROMETER/DATA SYSTEM=Magritek
##SAMPLE DESCRIPTION=solvent=Water
$$ Bruker specific parameters
$$ --------------------------
##$AUNMP=   <proc_1d_nosref>
##$INSTRUM= <Magritek>
##$SI=      8192
##$TD=      8192
##$TDeff=   8192
##$SW=      322.868600
##$BF1=     15.4861775226891
##$SF=      15.4844740431616
##$LB=      0
##$PHC0=    217.8
##$PHC1=    0.0
##$REVERSE= yes
$$ End of Bruker specific parameters
$$ ---------------------------------
##NTUPLES=NMR FID
##VAR_NAME=        TIME,            FID/REAL,            FID/IMAG, PAGE NUMBER
##SYMBOL=             X,                   R,                   I,           N
##VAR_TYPE= INDEPENDENT,           DEPENDENT,           DEPENDENT,        PAGE
##VAR_FORM=        AFFN,                AFFN,                AFFN,        AFFN
##VAR_DIM=         8192,                8192,                8192,           2
##UNITS=        SECONDS,     ARBITRARY UNITS,     ARBITRARY UNITS,            
##FIRST=              0,                   0,                   0,           1
##LAST=    1.638199e+00,  0.0604611791288888,   0.210872767730203,           2
##MIN=                0,   -1458.61628450949,   -1388.34073177106,           1
##MAX=     1.638199e+00,    1389.10127988282,     1503.5955600889,           2
##FACTOR=             1,                   1,                   1,           1
##PAGE=N=1
##DATA TABLE=(X++(R..R)), XYDATA
0.000000     0.000000   602.366585 -1097.109299 -1403.135631    50.348689  1389.101280
0.001200  1017.587111  -595.520271 -1458.616285  -520.498108  1035.442543  1289.680561
0.002400   -20.554160 -1267.764942  -963.213353   488.124525  1335.880633   569.679342
0.003600  -880.635558 -1250.770001  -111.021465  1157.571086  1026.028225  -343.351003
0.004800 -1307.576906  -694.357647   777.467084  1318.763080   241.235979 -1152.287462
0.006000 -1136.858839   282.076426  1365.991315   768.920801  -781.186605 -1376.739848
0.007200  -274.485357  1178.593917  1173.750394  -289.683250 -1393.362842  -764.245406
0.008400   804.959990  1362.096085   240.324773 -1157.896930 -1119.877080   286.080549
0.009600  1325.709277   726.922423  -749.815237 -1288.548293  -255.907446  1065.236379
0.010800  1074.301276  -209.842976 -1227.629081  -755.280534   626.150258  1241.540175
0.012000   345.499252  -964.591230 -1099.730701    94.393194  1180.557140   843.770695
0.013200  -530.109721 -1277.723721  -459.829474   945.342260  1192.776755   -33.684076
0.014400 -1225.341051  -912.198363   531.215085  1330.196093   485.854413  -971.721140
0.015600 -1227.086365    51.075024  1256.339740   891.420312  -564.314824 -1305.597292
0.016800  -439.791473   954.612812  1158.108676   -61.943580 -1186.421261  -837.196592
0.018000   516.732836  1209.969693   438.783891  -842.810242 -1096.278210   -26.325819
0.019200  1070.159800   866.666899  -382.776813 -1163.862253  -534.669291   740.621092
0.020400  1130.529089   150.252956 -1028.731876  -962.574262   295.574910  1211.113343
0.021600   639.533229  -728.017766 -1205.848030  -196.043301  1068.868499  1018.553523
0.022800  -295.735089 -1250.470631  -653.580077   756.031428  1222.800200   176.127079
0.024000 -1076.384192  -991.518774   306.796541  1214.597269   626.899507  -723.432388
0.025200 -1170.780953  -183.588660  1012.326503   956.870249  -260.146360 -1138.748253
0.026400  -631.394738   626.394366  1121.335654   257.996800  -919.737218  -978.820834
0.027600   155.343875  1101.334170   705.742499  -547.098585 -1139.102055  -347.922389
0.028800   878.717754  1045.574512   -79.282016 -1119.773942  -782.128867   527.166426
0.030000  1189.780822   387.549899  -895.541170 -1081.846148    72.227432  1146.128269
0.031200   795.969667  -545.639409 -1197.335983  -364.269762   901.315823  1042.430930
0.032400   -91.248521 -1098.381505  -750.390413   513.166076  1124.701219   351.531438
0.033600  -826.209594  -977.417983    42.346100   989.649257   742.152548  -397.741412
0.034800 -1054.306013  -429.717499   709.942402   990.018458    76.188128  -934.157160
0.036000  -820.879439   294.308518  1073.902403   547.008006  -671.082079 -1078.985754
0.037200  -149.017254   978.020682   903.845644  -293.585947 -1139.250353  -577.943369
0.038400   710.889848  1118.599471   128.763944 -1017.985871  -891.081528   338.224742
0.039600  1129.417763   520.566815  -719.621894 -1053.504204   -89.416734   961.686452
0.040800   820.053398  -313.963460 -1040.611060  -491.047256   636.888815   972.454323
0.042000   136.268984  -847.457423  -800.595621   209.108300   964.969463   553.898176
0.043200  -531.110793  -970.573193  -234.054820   786.918173   862.011338  -111.523517
0.044400  -967.015372  -648.145079   481.706644  1031.335554   306.293176  -805.535668
0.045600  -925.102183    95.468646  1005.170904   682.105789  -495.994889 -1066.702305
0.046800  -307.078399   836.976018   932.000972  -128.757557 -1011.806385  -641.643379
0.048000   506.832650  1024.592987   277.090313  -800.381768  -879.074490   119.990110
0.049200   945.728610   607.404704  -447.623013  -943.345972  -300.243672   696.961883
0.050400   850.133593   -26.607988  -866.273671  -651.165316   346.038219   926.770555
0.051600   394.367551  -622.483986  -901.762078   -76.960557   862.749258   752.319107
0.052800  -293.886287  -991.462714  -467.772658   644.025794   973.351490    97.473088
0.054000  -911.902393  -791.510974   323.030262  1035.422680   456.109123  -689.653784
0.055200  -964.994861   -46.873291   913.500797   737.209273  -340.083919  -978.890813
0.056400  -409.910983   643.908407   892.256929    56.286905  -826.212630  -693.716038
0.057600   269.159662   890.160906   435.204768  -534.016120  -860.410356  -148.884220
0.058800   743.661536   737.262552  -162.339135  -867.589713  -527.294986   461.541797
0.060000   906.031606   244.494832  -734.873960  -824.221935   114.769500   916.237761
0.061200   586.920992  -468.622287  -954.381691  -265.935029   760.525526   851.855520
0.062400  -125.611211  -946.087513  -586.106502   491.027876   949.197207   237.142437
0.063600  -753.949152  -815.065126   123.592781   903.077403   560.342440  -461.114044
0.064800  -899.983859  -238.457271   693.599073   774.412438   -76.942945  -827.888421
0.066000  -573.676405   379.239438   866.038971   295.967042  -623.369717  -785.994344
0.067200    -1.906889   790.716584   633.781995  -304.422000  -883.273897  -375.681269
0.068400   606.709775   849.177767    43.077937  -819.451092  -675.434403   307.271227
0.069600   917.025754   391.239653  -627.072186  -866.403201   -30.733605   837.147591
0.070800   656.913722  -329.688541  -898.794875  -356.805902   611.521317   813.126601
0.072000    17.774673  -782.366679  -614.225979   290.542816   820.441154   353.730081
0.073200  -525.278093  -762.918176   -83.370657   694.292298   632.361225  -195.658848
0.074400  -788.852874  -427.652952   453.433330   790.510029   172.710986  -667.443462
0.075600  -704.661392   129.344466   823.695842   504.994126  -452.930589  -858.303627
0.076800  -198.927137   712.873788   742.731071  -148.452853  -860.878859  -504.365324
0.078000   479.679139   862.133200   167.925001  -723.041120  -706.307390   172.932960
0.079200   825.902007   462.430614  -462.110189  -808.034958  -160.942565   668.583908
0.080400   664.349732  -140.473956  -755.664709  -455.530697   382.891782   759.345915
0.081600   220.121636  -588.942616  -678.402670    57.131565   720.300804   511.973700
0.082800  -315.813284  -767.127259  -292.543625   549.450631   733.208955     8.256895
0.084000  -736.204839  -576.398989   297.597665   812.463865   329.152284  -568.604261
0.085200  -771.351402   -13.292494   767.479250   589.345689  -321.586626  -825.339193
0.086400  -305.199578   586.157643   744.473038   -11.692652  -739.397189  -549.983276
0.087600   309.241161   775.278331   289.363875  -531.605530  -691.256272   -17.429425
0.088800   659.898484   536.041131  -226.554688  -713.212257  -340.764747   438.538241
0.090000   691.629488   109.604220  -610.794954  -599.905653   140.102719   724.671115
0.091200   432.226792  -402.269759  -759.123925  -176.697404   641.005781   669.457394
0.092400  -137.079237  -781.597914  -458.236067   436.945511   796.253041   163.108016
0.093600  -679.891676  -671.117100   178.295880   787.846904   412.731430  -454.877814
0.094800  -749.645329  -126.253727   641.034024   610.917512  -164.616703  -719.121617
0.096000  -387.551880   397.423492   682.727608   150.059262  -549.488323  -588.339185
0.097200    82.743013   653.876121   431.333697  -308.896742  -674.939469  -227.220860
0.098400   496.757378   627.574216    -4.944602  -648.053561  -507.040766   268.563515
0.099600   721.131041   281.380574  -506.806192  -678.778041   -12.415927   678.655576
0.100800   536.101903  -279.174417  -751.792301  -283.390875   536.507835   685.667210
0.102000   -15.260447  -690.176556  -506.407281   295.729009   725.952977   257.386112
0.103200  -520.415504  -645.333423    20.688210   639.958919   470.476824  -259.471739
0.104400  -663.147659  -260.363686   447.526358   608.338260    34.812628  -576.486790
0.105600  -491.377020   186.585903   639.115643   319.317440  -388.152518  -633.435071
0.106800  -109.456700   562.599397   554.947456  -145.019852  -678.747646  -371.448075
0.108000   400.191504   682.824259   120.822813  -597.845424  -579.557990   162.376580
