##TITLE=1D-13C-1-2-5-328-110-"no"-"yes"
##JCAMP-DX=5.01 $$ Magritek Spinsolve SPA1903 2.0.4.4423
##DATA TYPE=NMR FID
##DATA CLASS=NTUPLES
##ORIGIN=SPA1903 at Magritek
##OWNER=Copyright (C) 2025 by Magritek
##LONGDATE=2025/03/17 11:59:34.857
##.OBSERVE FREQUENCY=15.4860999900848
##.OBSERVE NUCLEUS=^13C
##.DELAY=( 20,  2000)
##.ACQUISITION MODE=SIMULTANEOUS
##.FIELD= 1.5
##.AVERAGES= 1
##.DIGITISER RES=16
##.SHIFT REFERENCE=(INTERNAL, Water, 4096, 0)
##$REFERENCE_POINT= 796.529    $$ Referencing label
$$      Distance of the zero axis position (in Hz) from the last data
$$      point (right edge); positive values -> right edge is below 0 Hz
##SPECTROMETER/DATA SYSTEM=Magritek
##SAMPLE DESCRIPTION=solvent=Water
$$ Bruker specific parameters
$$ --------------------------
##$AUNMP=   <proc_1d_nosref>
##$INSTRUM= <Magritek>
##$SI=      8192
##$TD=      8192
##$TDeff=   8192
##$SW=      322.870200
##$BF1=     15.4860999900848
##$SF=      15.4843965190859
##$LB=      0
##$PHC0=    216.9
##$PHC1=    0.0
##$REVERSE= yes
$$ End of Bruker specific parameters
$$ ---------------------------------
##NTUPLES=NMR FID
##VAR_NAME=        TIME,            FID/REAL,            FID/IMAG, PAGE NUMBER
##SYMBOL=             X,                   R,                   I,           N
##VAR_TYPE= INDEPENDENT,           DEPENDENT,           DEPENDENT,        PAGE
##VAR_FORM=        AFFN,                AFFN,                AFFN,        AFFN
##VAR_DIM=         8192,                8192,                8192,           2
##UNITS=        SECONDS,     ARBITRARY UNITS,     ARBITRARY UNITS,            
##FIRST=              0,                   0,                   0,           1
##LAST=    1.638199e+00,  -0.397714759982912,   0.633360561479983,           2
##MIN=                0,    -3351.0362788548,   -3286.62892593381,           1
##MAX=     1.638199e+00,    3255.21448083251,    3500.31533411179,           2
##FACTOR=             1,                   1,                   1,           1
##PAGE=N=1
##DATA TABLE=(X++(R..R)), XYDATA
0.000000     0.000000  1409.249859 -2555.522424 -3261.469087   145.876573  3254.992171
0.001200  2327.276696 -1437.888721 -3351.036279 -1131.732941  2403.820289  2931.757495
0.002400   -91.192934 -2920.258172 -2177.793334  1150.612168  3042.699416  1271.884068
0.003600 -2007.958067 -2860.545028  -274.139064  2648.589898  2386.590083  -769.569068
0.004800 -3034.734795 -1632.943525  1813.497161  3097.248299   579.826225 -2706.178160
0.006000 -2690.027580   672.494431  3255.214481  1820.556615 -1911.799865 -3291.421608
0.007200  -567.426990  2883.149032  2736.404213  -816.709485 -3343.562448 -1701.829079
0.008400  2035.406529  3203.206476   406.634106 -2839.050113 -2541.981493   857.175497
0.009600  3139.288095  1545.794976 -1881.478920 -2947.983122  -430.096270  2550.476097
0.010800  2399.264688  -624.008268 -2843.468259 -1623.507457  1529.747005  2831.232839
0.012000   716.557956 -2266.407827 -2521.286114   279.297093  2776.366849  1924.942729
0.013200 -1301.744540 -2997.626311 -1027.383851  2270.532888  2814.714668  -145.101016
0.014400 -2970.330019 -2129.550332  1382.778434  3215.921099  1042.522130 -2459.073181
0.015600 -2888.301932   298.396936  3089.453762  2002.656835 -1545.996696 -3136.295107
0.016800  -838.302594  2439.617229  2649.080044  -381.996197 -2870.262967 -1804.725192
0.018000  1401.088128  2820.658789   826.146165 -2106.072350 -2471.934413   123.146810
0.019200  2548.491370  1897.098151 -1022.841567 -2716.681635 -1147.409836  1829.110025
0.020400  2627.036157   236.991984 -2508.736307 -2224.661251   825.325970  2921.042836
0.021600  1425.818336 -1886.769800 -2900.553999  -308.411410  2707.987156  2374.561257
0.022800  -939.690530 -3097.255480 -1381.944030  2050.873579  2912.109101   159.289688
0.024000 -2766.481407 -2231.560680  1049.579657  2975.205930  1217.985275 -1992.971034
0.025200 -2704.235899  -115.027680  2551.590027  2065.181368  -894.546846 -2714.435346
0.026400 -1235.402869  1695.045538  2548.887367   334.860831 -2267.859167 -2137.930713
0.027600   571.511097  2603.662684  1491.035866 -1440.088338 -2649.855326  -644.310246
0.028800  2200.742410  2395.496134  -376.438113 -2740.814403 -1747.402095  1453.043278
0.030000  2886.498448   740.283530 -2352.114036 -2549.287585   445.087701  2909.402208
0.031200  1739.634192 -1611.764125 -2931.343280  -585.230427  2449.310504  2418.041372
0.032400  -585.505223 -2806.267297 -1534.285729  1583.375960  2692.288261   496.695725
0.033600 -2228.553459 -2186.410647   476.208289  2497.453608  1491.756759 -1270.934268
0.034800 -2485.486884  -713.652350  1903.741603  2229.494657  -121.313189 -2348.559166
0.036000 -1760.881251   989.065674  2589.679198  1042.365085 -1840.735683 -2513.414630
0.037200   -62.628739  2518.818321  2005.595035 -1029.884244 -2824.834929 -1097.862010
0.038400  2021.417524  2633.772760   -51.782803 -2668.216038 -1935.328112  1204.421649
0.039600  2808.988043   911.970217 -2065.688185 -2441.078937   177.925504  2516.554766
0.040800  1725.810567 -1134.263042 -2543.802405  -851.158623  1825.890583  2243.034115
0.042000   -38.258786 -2224.585421 -1721.694843   838.646612  2378.725505  1058.948953
0.043200 -1542.657996 -2285.165379  -254.583510  2109.523184  1938.011828  -609.108995
0.044400 -2459.829743 -1314.583245  1487.624883  2502.444870   417.891012 -2231.187999
0.045600 -2135.014970   621.229238  2632.198369  1375.020431 -1616.956076 -2609.216705
0.046800  -342.865726  2354.045067  2093.199838  -767.691440 -2639.245771 -1223.703152
0.048000  1671.898146  2455.989395   208.760582 -2246.705709 -1904.471919   740.929874
0.049200  2411.627390  1128.456445 -1470.906320 -2241.084148  -314.675817  1947.626978
0.050400  1852.909852  -458.896449 -2208.190391 -1300.650475  1170.014704  2248.558795
0.051600   620.107303 -1792.521959 -2074.226510   192.722347  2282.265282  1597.083703
0.052800 -1100.929899 -2487.274898  -797.446977  1934.830080  2291.262966  -224.980269
0.054000 -2487.227779 -1651.221006  1266.910167  2601.254794   680.739711 -2072.985666
0.055200 -2215.957128   394.906929  2460.725302  1459.483077 -1307.595385 -2407.629675
0.056400  -543.893230  1922.877123  2001.781519  -327.925893 -2196.392432 -1386.000735
0.057600  1066.645124  2197.181736   688.147590 -1624.258329 -1986.577048    37.749723
0.058800  2028.887395  1577.396088  -792.189314 -2239.589063  -974.617946  1511.003086
0.060000  2190.546919   178.379373 -2113.474434 -1821.271213   755.131409  2435.467264
0.061200  1104.460100 -1629.503702 -2352.739704  -140.667631  2261.065547  1851.707294
0.062400  -872.705248 -2507.157887 -1002.986875  1726.966025  2282.336264    16.909866
0.063600 -2229.181185 -1698.883201   905.049553  2342.524817   891.026457 -1603.129471
0.064800 -2082.322081   -42.863902  1994.090180  1595.372584  -702.524807 -2121.526738
0.066000  -982.106055  1325.444004  2032.413162   294.997900 -1799.359507 -1727.657171
0.067200   431.039310  2103.914015  1243.112371 -1173.453338 -2202.755917  -529.136576
0.068400  1845.319722  1972.447316  -365.351706 -2294.384390 -1387.096968  1274.930651
0.069600  2375.055780   501.491404 -2016.174501 -2008.510175   513.456076  2376.056668
0.070800  1262.721572 -1398.892856 -2278.794133  -328.964606  1979.939252  1807.377129
0.072000  -563.737231 -2179.330973 -1113.255990  1258.199335  2044.978625   367.520864
0.073200 -1702.860901 -1695.060124   333.700335  1938.188540  1218.455137  -959.483522
0.074400 -1994.980863  -628.056184  1523.677253  1854.336655   -72.942416 -1952.602848
0.075600 -1471.345291   846.665918  2175.347380   824.761093 -1598.271385 -2062.941008
0.076800    50.526215  2126.100141  1565.265400  -958.850429 -2295.896475  -765.890587
0.078000  1719.855844  2051.900159  -173.010454 -2157.090714 -1445.273184  1037.315414
0.079200  2192.790708   637.411756 -1658.984649 -1885.815938   181.541695  1977.727422
0.080400  1331.064332  -904.567693 -1985.869374  -666.737512  1424.239928  1783.553983
0.081600    -1.633264 -1768.974801 -1403.198145   645.760541  1926.174584   882.547283
0.082800 -1236.019392 -1888.447070  -242.895451  1742.996474  1628.911418  -505.211803
0.084000 -2067.763890 -1088.387543  1270.894008  2091.032019   306.394455 -1894.789971
0.085200 -1748.462805   593.139754  2207.768500  1062.079044 -1410.919075 -2110.680210
0.086400  -179.204920  1948.608974  1623.929810  -696.481256 -2109.491152  -904.199167
0.087600  1367.454710  1912.330280   127.284286 -1754.894591 -1468.762163   566.460424
0.088800  1871.986093   918.248787 -1101.697975 -1781.750304  -330.804399  1516.909220
0.090000  1554.697334  -281.917679 -1797.103358 -1161.367258   909.228305  1912.990635
0.091200   584.406485 -1507.487799 -1792.164472   157.554325  1961.195761  1346.056072
0.092400  -970.454682 -2101.798282  -607.527096  1664.819266  1869.514829  -265.542798
0.093600 -2064.744288 -1279.209864  1096.118630  2080.921440   465.471126 -1681.507156
0.094800 -1712.960794   345.907303  1937.028965  1131.166028 -1022.402483 -1881.481958
0.096000  -446.227003  1481.592351  1582.576125  -211.489767 -1713.845509 -1155.843835
0.097200   782.347811  1775.253613   628.935280 -1277.280546 -1653.405042   -28.729021
0.098400  1649.730621  1346.135770  -612.372167 -1866.690912  -842.505060  1257.960047
0.099600  1838.075284   136.667641 -1764.675785 -1495.985421   650.969043  2014.364742
0.100800   867.346992 -1375.901382 -1910.301487   -54.777986  1866.258346  1447.752469
0.102000  -769.483922 -1999.700255  -738.449043  1410.665702  1776.157856   -47.746040
0.103200 -1763.268085 -1284.151589   737.516314  1804.757197   669.782187 -1231.686172
0.104400 -1607.547784   -58.137660  1527.386363  1268.345573  -500.673933 -1662.678129
0.105600  -833.165525  1002.228390  1649.648176   305.556577 -1437.668720 -1458.511329
0.106800   313.354577  1750.484747  1056.751745  -980.906649 -1844.235922  -412.692970
0.108000  1570.853616  1616.575844  -370.919160 -1913.174374 -1062.594743  1125.828567
