##TITLE=1D-13C-1-2-5-328-110-"no"-"yes"
##JCAMP-DX=5.01 $$ Magritek Spinsolve SPA1903 2.0.4.4423
##DATA TYPE=NMR FID
##DATA CLASS=NTUPLES
##ORIGIN=SPA1903 at Magritek
##OWNER=Copyright (C) 2025 by Magritek
##LONGDATE=2025/03/17 12:00:28.784
##.OBSERVE FREQUENCY=15.4860999900848
##.OBSERVE NUCLEUS=^13C
##.DELAY=( 20,  2000)
##.ACQUISITION MODE=SIMULTANEOUS
##.FIELD= 1.5
##.AVERAGES= 1
##.DIGITISER RES=16
##.SHIFT REFERENCE=(INTERNAL, Water, 4096, 0)
##$REFERENCE_POINT= 796.529    $$ Referencing label
$$      Distance of the zero axis position (in Hz) from the last data
$$      point (right edge); positive values -> right edge is below 0 Hz
##SPECTROMETER/DATA SYSTEM=Magritek
##SAMPLE DESCRIPTION=solvent=Water
$$ Bruker specific parameters
$$ --------------------------
##$AUNMP=   <proc_1d_nosref>
##$INSTRUM= <Magritek>
##$SI=      8192
##$TD=      8192
##$TDeff=   8192
##$SW=      322.870200
##$BF1=     15.4860999900848
##$SF=      15.4843965190859
##$LB=      0
##$PHC0=    216.6
##$PHC1=    0.0
##$REVERSE= yes
$$ End of Bruker specific parameters
$$ ---------------------------------
##NTUPLES=NMR FID
##VAR_NAME=        TIME,            FID/REAL,            FID/IMAG, PAGE NUMBER
##SYMBOL=             X,                   R,                   I,           N
##VAR_TYPE= INDEPENDENT,           DEPENDENT,           DEPENDENT,        PAGE
##VAR_FORM=        AFFN,                AFFN,                AFFN,        AFFN
##VAR_DIM=         8192,                8192,                8192,           2
##UNITS=        SECONDS,     ARBITRARY UNITS,     ARBITRARY UNITS,            
##FIRST=              0,                   0,                   0,           1
##LAST=    1.638199e+00,  -0.613572550349437,  0.0425015632080537,           2
##MIN=                0,   -2104.63531691736,   -2074.96613085743,           1
##MAX=     1.638199e+00,    2052.41797286361,     2196.0892308693,           2
##FACTOR=             1,                   1,                   1,           1
##PAGE=N=1
##DATA TABLE=(X++(R..R)), XYDATA
0.000000     0.000000   886.605196 -1590.262633 -2048.704067    82.821609  2044.391739
0.001200  1466.180064  -896.075174 -2104.635317  -718.796664  1503.522037  1846.794853
0.002400   -44.163904 -1828.972325 -1380.778952   715.107339  1914.414289   805.569707
0.003600 -1259.339211 -1797.844024  -175.967292  1661.967421  1507.201506  -471.274003
0.004800 -1906.638426 -1031.796999  1127.115644  1944.536764   375.189979 -1690.543467
0.006000 -1701.532780   412.745878  2052.417973  1156.439411 -1192.684139 -2079.327905
0.007200  -373.393669  1815.595988  1739.012910  -500.571184 -2099.439171 -1084.912270
0.008400  1267.171876  2032.145534   275.851750 -1786.016233 -1609.859611   535.107406
0.009600  1976.247253   986.450755 -1180.574703 -1869.462939  -288.011307  1601.787676
0.010800  1520.756251  -379.672662 -1794.987008 -1036.137870   957.709733  1789.318346
0.012000   465.654581 -1423.113395 -1603.526542   154.247146  1753.418659  1237.830787
0.013200  -807.662300 -1900.896455  -671.750706  1426.890074  1790.341964   -69.289051
0.014400 -1874.428907 -1374.209055   856.554739  2041.768677   676.468183 -1549.489420
0.015600 -1846.064913   168.474857  1955.186225  1298.385121  -957.939751 -1995.059022
0.016800  -551.368451  1532.278187  1694.963324  -215.616484 -1813.880581 -1166.156866
0.018000   864.485736  1802.210933   555.442512 -1323.732433 -1580.957307    56.437792
0.019200  1604.820036  1220.985350  -621.458898 -1727.605118  -759.608305  1144.959321
0.020400  1691.362619   178.202924 -1585.617230 -1437.317616   502.041080  1859.361498
0.021600   933.000337 -1176.247388 -1855.459948  -226.955587  1716.499794  1534.548911
0.022800  -568.598433 -1964.280633  -912.685144  1282.759366  1869.489390   133.559389
0.024000 -1750.592668 -1445.003021   639.831609  1896.910281   805.203411 -1239.681081
0.025200 -1732.764222  -106.783995  1609.595229  1335.948885  -541.947683 -1724.636224
0.026400  -816.533594  1057.564398  1637.233243   246.159487 -1431.013212 -1385.392187
0.027600   332.016113  1655.140573   986.823517  -893.533622 -1707.542362  -449.773408
0.028800  1384.906917  1550.256196  -206.164259 -1748.601682 -1145.916474   893.710770
0.030000  1854.978616   514.036066 -1487.311731 -1648.034586   250.316504  1849.886045
0.031200  1143.471618  -997.496430 -1885.648364  -424.086272  1545.181050  1568.514007
0.032400  -338.811223 -1789.653355 -1019.015024   982.876910  1727.809058   358.605653
0.033600 -1400.596067 -1425.954876   259.549962  1593.369324   995.374223  -779.837104
0.034800 -1603.369315  -504.933828  1191.687977  1452.658984   -35.712305 -1500.378585
0.036000 -1165.310845   597.308961  1668.930156   708.953904 -1154.957726 -1631.951059
0.037200   -83.003136  1606.691930  1322.232946  -622.340438 -1817.088480  -749.151133
0.038400  1271.885168  1707.687242     2.643197 -1702.065238 -1276.114206   727.114944
0.039600  1803.170472   633.894912 -1296.388812 -1591.307596    65.159785  1605.599532
0.040800  1153.108669  -689.329683 -1645.657207  -595.073611  1146.160442  1469.614365
0.042000    28.755933 -1419.364849 -1147.866589   494.181558  1530.659218   726.983315
0.043200  -955.934067 -1495.362104  -216.546541  1341.671306  1289.089242  -345.987139
0.044400 -1582.891564  -892.744053   920.476921  1635.303322   325.180970 -1416.922908
0.045600 -1417.340283   351.625429  1706.078168   937.714467 -1012.915191 -1704.498762
0.046800  -268.359890  1496.410941  1392.190182  -437.785788 -1702.057221  -838.453267
0.048000  1035.067547  1602.678288   192.753625 -1425.682657 -1269.906333   424.556424
0.049200  1554.162585   780.854803  -904.360369 -1466.727699  -259.568947  1232.374426
0.050400  1237.184063  -240.896385 -1422.661646  -897.149431   704.695916  1476.619598
0.051600   467.083540 -1135.442710 -1383.560968    69.616103  1472.331548  1079.840012
0.052800  -666.068937 -1628.333530  -571.273982  1226.175539  1512.085074   -93.382031
0.054000 -1602.961447 -1116.864306   774.908562  1692.689068   495.898474 -1307.117560
0.055200 -1471.000301   189.507559  1581.995054   999.166914  -791.523178 -1574.327704
0.056400  -420.549730  1211.665059  1331.454611  -152.143055 -1413.475986  -955.298203
0.057600   637.744267  1440.389811   510.364670 -1019.768141 -1318.874914   -40.033277
0.058800  1301.042490  1078.960507  -456.787590 -1461.976452  -694.628896   945.067518
0.060000  1460.639474   176.373272 -1356.972676 -1233.495162   433.314582  1588.799091
0.061200   777.130268 -1015.869504 -1561.486742  -154.423115  1457.121117  1259.145752
0.062400  -510.035435 -1632.898203  -715.529754  1076.472472  1511.504435    76.009718
0.063600 -1424.169801 -1152.807238   521.352481  1524.685397   649.094938  -996.926361
0.064800 -1388.977658   -98.125275  1271.754542  1087.247272  -394.354310 -1379.448689
0.066000  -707.036905   814.448020  1353.265472   261.128758 -1147.494666 -1179.760686
0.067200   219.015166  1376.016612   870.632072  -719.762198 -1465.239185  -419.848925
0.068400  1176.484180  1338.600153  -175.659800 -1497.150935  -966.688605   784.782833
0.069600  1572.372774   395.176378 -1285.652011 -1356.588805   268.058199  1542.715455
0.070800   887.833487  -855.559169 -1508.768866  -292.133948  1251.947972  1222.884873
0.072000  -291.223127 -1404.571540  -791.911368   758.697586  1357.230505   315.048316
0.073200 -1079.053686 -1158.016942   144.406193  1268.005784   870.047903  -571.008593
0.074400 -1328.979701  -481.797520   965.737598  1260.900995    24.183569 -1270.151151
0.075600 -1028.607351   491.631972  1441.219186   614.065891 -1006.361347 -1392.528708
0.076800   -40.222983  1370.507220  1081.948806  -566.438321 -1518.708459  -578.485626
0.078000  1086.493376  1392.462503   -33.555350 -1392.885438 -1008.307050   611.367763
0.079200  1447.311787   495.225181 -1037.906051 -1277.238350    42.802387  1273.986131
0.080400   934.396985  -523.972063 -1314.529949  -515.966773   881.522651  1210.520304
0.081600    84.963105 -1135.528044  -989.751723   354.284621  1277.077866   658.509177
0.082800  -764.770601 -1284.537027  -240.232522  1121.078596  1129.889782  -262.613604
0.084000 -1366.296490  -789.960945   785.286046  1409.753561   283.270596 -1215.773077
0.085200 -1207.383627   316.409632  1453.765517   771.175504  -875.072616 -1414.521744
0.086400  -194.314070  1249.664017  1128.329742  -380.706661 -1389.196846  -675.140695
0.087600   845.234108  1287.183123   163.298624 -1117.677829 -1022.463279   289.914894
0.088800  1229.613261   681.393781  -666.743577 -1209.007440  -309.242010   966.190032
0.090000  1084.024385  -105.213652 -1187.065425  -844.005094   545.180258  1298.257635
0.091200   470.426391  -961.307750 -1236.344060    28.521136  1287.126530   957.502008
0.092400  -578.375487 -1409.338669  -479.956504  1056.662488  1279.375991   -98.031558
0.093600 -1353.083522  -914.754436   658.955554  1385.836079   392.779204 -1062.024372
0.094800 -1188.147534   140.825754  1261.766658   817.667284  -608.733623 -1259.332245
0.096000  -381.651047   931.402806  1097.580998   -53.238086 -1120.315807  -834.095664
0.097200   447.820000  1193.143897   504.815073  -797.915429 -1140.036688  -100.726422
0.098400  1075.080299   962.779160  -338.783925 -1254.095928  -634.643138   786.965834
0.099600  1260.634526   175.130445 -1150.038736 -1055.445443   358.906272  1345.055012
0.100800   656.804801  -858.280771 -1305.707823  -117.802212  1214.251061  1024.908828
0.102000  -436.183976 -1332.131255  -567.421212   875.372155  1213.481844    55.203035
0.103200 -1141.436313  -917.219596   404.328288  1200.905062   534.419587  -756.982857
0.104400 -1112.564456  -133.226005   985.017153   912.304280  -245.723196 -1111.510282
0.105600  -643.999293   607.071311  1141.340715   294.712088  -930.819665 -1040.250135
0.106800   132.315112  1175.158402   781.866157  -596.383305 -1263.246786  -359.026666
0.108000  1014.930443  1134.255541  -168.594689 -1271.179237  -786.660058   689.423769
