##TITLE=1D-13C-1-2-5-328-110-"no"-"yes"
##JCAMP-DX=5.01 $$ Magritek Spinsolve SPA1903 2.0.4.4423
##DATA TYPE=NMR FID
##DATA CLASS=NTUPLES
##ORIGIN=SPA1903 at Magritek
##OWNER=Copyright (C) 2025 by Magritek
##LONGDATE=2025/03/17 12:00:40.174
##.OBSERVE FREQUENCY=15.4860999900848
##.OBSERVE NUCLEUS=^13C
##.DELAY=( 20,  2000)
##.ACQUISITION MODE=SIMULTANEOUS
##.FIELD= 1.5
##.AVERAGES= 1
##.DIGITISER RES=16
##.SHIFT REFERENCE=(INTERNAL, Water, 4096, 0)
##$REFERENCE_POINT= 796.529    $$ Referencing label
$$      Distance of the zero axis position (in Hz) from the last data
$$      point (right edge); positive values -> right edge is below 0 Hz
##SPECTROMETER/DATA SYSTEM=Magritek
##SAMPLE DESCRIPTION=solvent=Water
$$ Bruker specific parameters
$$ --------------------------
##$AUNMP=   <proc_1d_nosref>
##$INSTRUM= <Magritek>
##$SI=      8192
##$TD=      8192
##$TDeff=   8192
##$SW=      322.870200
##$BF1=     15.4860999900848
##$SF=      15.4843965190859
##$LB=      0
##$PHC0=    216.7
##$PHC1=    0.0
##$REVERSE= yes
$$ End of Bruker specific parameters
$$ ---------------------------------
##NTUPLES=NMR FID
##VAR_NAME=        TIME,            FID/REAL,            FID/IMAG, PAGE NUMBER
##SYMBOL=             X,                   R,                   I,           N
##VAR_TYPE= INDEPENDENT,           DEPENDENT,           DEPENDENT,        PAGE
##VAR_FORM=        AFFN,                AFFN,                AFFN,        AFFN
##VAR_DIM=         8192,                8192,                8192,           2
##UNITS=        SECONDS,     ARBITRARY UNITS,     ARBITRARY UNITS,            
##FIRST=              0,                   0,                   0,           1
##LAST=    1.638199e+00,  -0.573449371995031,  -0.116925211381567,           2
##MIN=                0,   -1905.26396963494,   -1876.05576610434,           1
##MAX=     1.638199e+00,    1855.85372196523,     1989.0279408791,           2
##FACTOR=             1,                   1,                   1,           1
##PAGE=N=1
##DATA TABLE=(X++(R..R)), XYDATA
0.000000     0.000000   796.626194 -1448.697834 -1859.382790    75.497503  1844.969030
0.001200  1317.291713  -813.814599 -1905.263970  -642.636970  1366.029281  1659.556081
0.002400   -54.019611 -1660.047803 -1237.996889   649.032631  1724.245189   721.121454
0.003600 -1137.430890 -1619.549254  -158.877421  1495.482611  1355.494948  -432.869184
0.004800 -1722.050717  -926.439280  1019.414245  1754.526312   331.493989 -1533.765276
0.006000 -1530.013840   372.148367  1855.853722  1043.962630 -1087.754273 -1877.893776
0.007200  -328.855155  1639.527277  1570.114668  -456.379580 -1902.517784  -981.024716
0.008400  1152.551923  1832.116657   240.736870 -1616.800421 -1454.979798   484.327745
0.009600  1788.753641   894.738415 -1059.718325 -1680.792989  -254.547647  1446.886932
0.010800  1373.981968  -348.153760 -1626.944857  -933.898935   871.781432  1618.234336
0.012000   424.949338 -1277.940785 -1445.204274   141.419670  1581.306397  1119.052918
0.013200  -729.537452 -1721.810805  -606.019506  1286.487637  1617.757180   -62.952456
0.014400 -1698.262773 -1240.931684   770.539901  1844.300071   609.838710 -1399.812294
0.015600 -1662.145427   149.800803  1770.986114  1174.906960  -866.198468 -1800.439334
0.016800  -496.669131  1388.570583  1526.134799  -196.382113 -1639.145217 -1050.671335
0.018000   781.177648  1623.533584   501.764599 -1196.111968 -1431.245264    48.466120
0.019200  1451.357684  1102.572304  -569.083860 -1560.261676  -679.793661  1037.634060
0.020400  1529.883313   162.432113 -1432.777402 -1291.954300   453.081529  1681.420101
0.021600   843.884617 -1067.978310 -1682.504631  -201.594792  1549.323146  1385.239606
0.022800  -515.653466 -1780.828915  -824.913677  1162.198724  1693.848767   120.505736
0.024000 -1585.940289 -1305.977609   577.001321  1718.269100   728.486509 -1122.686899
0.025200 -1561.534007   -99.033559  1459.301910  1218.138537  -493.739659 -1563.797597
0.026400  -738.900324   950.645680  1480.987731   229.194054 -1291.220229 -1250.581660
0.027600   295.765771  1494.019635   892.970733  -808.978095 -1547.684650  -402.131050
0.028800  1252.418699  1404.759990  -181.510407 -1584.211267 -1042.801536   805.378909
0.030000  1682.905154   468.703475 -1352.222930 -1500.907622   224.223553  1677.938946
0.031200  1034.075938  -897.691242 -1697.557797  -377.248377  1396.518087  1413.191855
0.032400  -304.194179 -1621.608604  -916.365333   887.966036  1564.936546   330.856250
0.033600 -1269.526508 -1292.645180   232.471206  1436.443634   903.165721  -699.266400
0.034800 -1448.137879  -461.520038  1075.625585  1316.909570   -30.207291 -1358.263343
0.036000 -1058.665926   539.553695  1516.864716   648.241586 -1047.420497 -1485.460576
0.037200   -79.788752  1455.628976  1200.883943  -560.763682 -1648.575642  -682.788132
0.038400  1152.262212  1548.066953     6.702818 -1538.374825 -1152.182084   661.560066
0.039600  1628.935706   576.518823 -1169.694250 -1449.153095    55.954176  1457.679751
0.040800  1043.993238  -616.958099 -1490.209468  -545.961216  1029.255314  1329.106836
0.042000    26.119526 -1282.773039 -1045.423177   444.632545  1390.303297   662.724852
0.043200  -869.836895 -1359.638098  -200.182600  1216.246798  1174.695355  -311.376591
0.044400 -1450.030690  -818.010187   838.076799  1483.358261   297.353847 -1284.223597
0.045600 -1285.928102   316.222348  1546.397905   853.942723  -909.282811 -1543.845326
0.046800  -249.997917  1361.555887  1260.229894  -400.989671 -1544.560510  -765.413046
0.048000   945.547154  1458.378015   179.124156 -1293.343973 -1153.929568   375.852571
0.049200  1406.301410   713.589285  -819.888851 -1333.094770  -242.739670  1117.669819
0.050400  1123.051079  -214.122603 -1294.807035  -818.782914   640.861818  1340.355942
0.051600   428.324506 -1030.012622 -1255.997613    58.451045  1334.636776   989.675922
0.052800  -599.889265 -1481.048713  -528.058186  1109.545182  1382.848753   -74.167467
0.054000 -1457.035819 -1024.849772   691.969192  1538.376209   455.097381 -1183.210068
0.055200 -1337.680071   168.491147  1439.599571   912.132164  -718.005361 -1427.888577
0.056400  -388.853381  1090.485327  1211.971920  -130.250382 -1278.651166  -868.199461
0.057600   573.778133  1310.134577   473.324519  -925.150460 -1208.883685   -40.117215
0.058800  1184.676584   989.587339  -412.574260 -1332.755937  -639.397689   855.559103
0.060000  1330.234764   162.384058 -1233.230417 -1124.866076   384.318120  1447.275623
0.061200   720.473086  -920.127411 -1426.200749  -147.840919  1324.308678  1142.658010
0.062400  -453.647837 -1478.484854  -658.223993   974.369246  1376.766400    74.582457
0.063600 -1293.691410 -1046.907848   470.941988  1384.049073   593.573807  -896.911776
0.064800 -1268.717653  -100.919394  1155.224922   997.615029  -347.244710 -1257.275366
0.066000  -652.754135   729.601953  1230.873752   250.920238 -1036.366213 -1080.675521
0.067200   187.484512  1253.888635   802.193424  -645.204091 -1334.187514  -384.349551
0.068400  1066.061700  1221.487515  -147.313805 -1358.847266  -887.421223   705.682688
0.069600  1433.701245   368.777780 -1158.945467 -1238.249115   234.957244  1404.002555
0.070800   815.906525  -771.284520 -1368.204064  -271.225147  1136.819079  1123.976564
0.072000  -256.944603 -1279.788648  -725.628779   682.072682  1237.078983   299.168493
0.073200  -974.490221 -1061.372178   121.021637  1142.985191   797.449500  -508.911487
0.074400 -1212.462982  -451.105460   867.041401  1152.350286    33.729158 -1160.620034
0.075600  -947.639011   446.384470  1316.230035   565.421877  -908.440081 -1273.967607
0.076800   -48.992038  1253.134411   997.450600  -505.251012 -1386.878412  -531.812551
0.078000   981.867103  1268.119729   -23.758145 -1266.737481  -921.334148   551.296740
0.079200  1313.980936   458.228711  -938.102009 -1161.608425    30.016011  1160.067198
0.080400   858.937535  -467.127350 -1198.448132  -484.078261   796.447109  1108.176787
0.081600    88.443633 -1032.388023  -907.543368   310.719556  1162.196172   611.206486
0.082800  -690.212849 -1171.731530  -230.538640  1020.497008  1041.133727  -229.658461
0.084000 -1247.466533  -729.120773   711.391179  1288.166277   267.549120 -1104.330357
0.085200 -1108.663258   279.667692  1320.017416   710.272455  -790.735380 -1293.230700
0.086400  -186.813068  1133.744369  1035.763510  -331.095209 -1258.558327  -621.171406
0.087600   759.852517  1176.689385   163.559427 -1012.696367  -942.402813   250.283463
0.088800  1117.564870   638.935377  -596.540570 -1107.377565  -292.379005   870.080029
0.090000   994.033141   -83.722012 -1078.342122  -778.739920   482.820182  1188.573648
0.091200   438.824392  -868.105317 -1130.233341    13.539569  1173.204059   879.861033
0.092400  -519.857028 -1289.106656  -450.395557   961.456233  1171.973120   -81.614804
0.093600 -1227.095080  -837.649709   591.464663  1269.776263   367.818828  -962.249619
0.094800 -1084.041028   117.215510  1143.239228   755.886599  -534.732052 -1147.290356
0.096000  -364.437637   839.558001  1009.887756   -31.723956 -1020.492328  -776.165366
0.097200   394.466706  1086.355719   469.358456  -720.071408 -1052.935614  -109.047693
0.098400   980.301733   885.350443  -296.596335 -1145.489474  -599.033358   710.833301
0.099600  1154.910951   165.802642 -1048.795556  -976.518772   317.882244  1229.407379
0.100800   607.928857  -774.166692 -1194.394323  -121.182921  1099.018630   946.110800
0.102000  -382.967748 -1214.756038  -528.490380   787.164558  1112.799119    71.168084
0.103200 -1033.851364  -845.103879   360.282269  1093.472210   497.929697  -674.834173
0.104400 -1016.443476  -138.851430   893.875760   841.310241  -212.994403 -1014.507527
0.105600  -605.064816   542.286329  1046.185351   283.985865  -844.014190  -961.763429
0.106800   110.274393  1071.221119   725.369930  -535.337573 -1162.644297  -339.023488
0.108000   926.310171  1047.956094  -141.583350 -1161.722664  -726.273973   613.406389
