##TITLE=1D-13C-1-5-5-328-110-"no"-"yes"
##JCAMP-DX=5.01 $$ Magritek Spinsolve SPA1903 2.0.4.4423
##DATA TYPE=NMR FID
##DATA CLASS=NTUPLES
##ORIGIN=SPA1903 at Magritek
##OWNER=Copyright (C) 2025 by Magritek
##LONGDATE=2025/02/12 14:32:30.941
##.OBSERVE FREQUENCY=15.4861775226891
##.OBSERVE NUCLEUS=^13C
##.DELAY=( 20,  5000)
##.ACQUISITION MODE=SIMULTANEOUS
##.FIELD= 1.5
##.AVERAGES= 1
##.DIGITISER RES=16
##.SHIFT REFERENCE=(INTERNAL, Water, 4096, 0)
##$REFERENCE_POINT= 796.520    $$ Referencing label
$$      Distance of the zero axis position (in Hz) from the last data
$$      point (right edge); positive values -> right edge is below 0 Hz
##SPECTROMETER/DATA SYSTEM=Magritek
##SAMPLE DESCRIPTION=solvent=Water
$$ Bruker specific parameters
$$ --------------------------
##$AUNMP=   <proc_1d_nosref>
##$INSTRUM= <Magritek>
##$SI=      8192
##$TD=      8192
##$TDeff=   8192
##$SW=      322.868600
##$BF1=     15.4861775226891
##$SF=      15.4844740431616
##$LB=      0
##$PHC0=    217.7
##$PHC1=    0.0
##$REVERSE= yes
$$ End of Bruker specific parameters
$$ ---------------------------------
##NTUPLES=NMR FID
##VAR_NAME=        TIME,            FID/REAL,            FID/IMAG, PAGE NUMBER
##SYMBOL=             X,                   R,                   I,           N
##VAR_TYPE= INDEPENDENT,           DEPENDENT,           DEPENDENT,        PAGE
##VAR_FORM=        AFFN,                AFFN,                AFFN,        AFFN
##VAR_DIM=         8192,                8192,                8192,           2
##UNITS=        SECONDS,     ARBITRARY UNITS,     ARBITRARY UNITS,            
##FIRST=              0,                   0,                   0,           1
##LAST=    1.638199e+00,  -0.160750542292353,-8.1469127906200e-03,           2
##MIN=                0,   -148.266194184709,   -146.070908360122,           1
##MAX=     1.638199e+00,    142.623722495827,    147.850058953936,           2
##FACTOR=             1,                   1,                   1,           1
##PAGE=N=1
##DATA TABLE=(X++(R..R)), XYDATA
0.000000     0.000000    62.386626  -105.479054  -142.085311    -0.451542   137.185567
0.001200   103.078461   -57.738891  -148.266194   -55.958412   101.053454   131.943618
0.002400     1.556691  -127.793222  -101.386577    43.053934   134.206542    65.180530
0.003600   -81.023073  -128.724587   -18.420672   112.919795   108.010029   -24.581104
0.004800  -131.409554   -78.131915    74.708917   136.815645    36.599181  -111.013137
0.006000  -121.234043    17.968745   139.141636    87.709937   -74.053441  -146.860924
0.007200   -39.016794   118.925960   127.228274   -21.634342  -142.547793   -87.795544
0.008400    73.507126   142.623722    36.337423  -113.049783  -123.341052    19.499875
0.009600   135.446688    82.229189   -66.864148  -134.175750   -39.358608   100.271696
0.010800   116.326620    -8.247733  -122.719166   -92.610511    51.650833   128.721715
0.012000    50.869552   -86.062448  -120.691167    -8.249142   116.335337   100.537442
0.013200   -40.764693  -135.353865   -66.088091    84.082285   131.720980    15.774805
0.014400  -122.009555  -111.267184    36.922208   142.190020    70.282702   -89.658364
0.015600  -138.252150   -16.550684   122.492017   107.222200   -41.997515  -137.823805
0.016800   -65.017400    86.650906   129.994295    14.187331  -118.814658  -103.182054
0.018000    35.668253   127.757900    65.405324   -73.561944  -122.359403   -24.417629
0.019200   102.914198   104.257135   -17.767648  -117.419028   -79.197754    56.788534
0.020400   125.728194    39.836997   -98.491374  -118.247332     6.002789   125.003028
0.021600    91.100863   -58.184425  -137.685451   -47.586800    99.372490   124.924486
0.022800    -5.705572  -130.399599   -93.352104    59.597246   137.161961    46.213262
0.024000  -101.709814  -122.431306     7.875481   125.949791    87.028696   -54.775745
0.025200  -131.357245   -46.281230    90.612381   115.483344     1.512207  -114.718688
0.026400   -89.870744    44.178766   124.946544    57.383605   -77.412444  -116.951849
0.027600   -12.520092   107.025729    98.380656   -25.721112  -122.840846   -70.312714
0.028800    70.585468   127.464845    26.632928  -108.457769  -106.834701    25.724076
0.030000   130.179809    76.109766   -73.403183  -130.811509   -28.262142   109.415284
0.031200   110.440216   -25.986363  -130.568973   -73.514611    73.913202   126.352257
0.032400    23.832537  -105.392495  -105.993509    23.261548   122.558585    68.936785
0.033600   -66.130940  -118.280410   -29.047299    92.330624   103.139000    -9.238995
0.034800  -114.594027   -78.291473    52.757730   118.750529    45.433284   -83.287149
0.036000  -113.158868    -3.583025   110.844942    92.038103   -40.190781  -124.048248
0.037200   -54.261461    84.245615   122.179493     4.139035  -118.301279   -95.946481
0.038400    44.867541   131.741647    55.102922   -88.469239  -121.725768    -3.959507
0.039600   117.485484    94.227532   -41.882131  -123.282558   -51.564156    81.946216
0.040800   113.237229     5.837863  -106.025921   -89.713927    34.759788   114.559281
0.042000    55.405094   -67.013199  -111.474580   -18.834449    96.722915    93.821695
0.043200   -20.956614  -110.659422   -66.355858    58.779416   112.483061    29.195742
0.044400   -92.610314  -105.232399    11.822869   117.381279    78.442685   -56.707975
0.045600  -123.014542   -35.682908    97.064668   107.597506   -13.722578  -121.111351
0.046800   -79.570586    58.689002   123.079937    34.295323   -97.414056  -105.541583
0.048000    12.911005   115.310397    75.464848   -54.720182  -114.101379   -33.569237
0.049200    85.738919   100.485906    -4.905135  -104.213452   -77.147245    43.663025
0.050400   111.166719    44.600329   -74.670047  -104.120359    -7.583427    98.428280
0.051600    86.884685   -32.166095  -115.559225   -58.144680    69.049511   114.513834
0.052800    17.599694  -104.147532   -94.543669    32.127316   120.086162    62.833936
0.054000   -75.138760  -118.095299   -16.116542   105.473490    95.250532   -31.966232
0.055200  -119.786230   -60.161540    72.557047   111.828795    12.416413   -98.915460
0.056400   -90.495429    28.373023   110.520127    57.696048   -62.456219  -105.593086
0.057600   -21.689553    87.141824    92.051315   -13.701195  -103.500610   -68.537944
0.058800    47.611915   105.901551    34.690764   -82.587715  -101.015710     2.127619
0.060000   105.782822    80.250837   -45.232335  -115.569543   -44.678319    85.262715
0.061200   109.352299    -4.045495  -112.039988   -82.454862    46.515434   115.936466
0.062400    45.252385   -84.480477  -107.859413     1.516620   107.880461    79.094264
0.063600   -45.427814  -110.322082   -42.996435    78.617970   103.294039     0.546928
0.064800   -97.891347   -79.666453    34.708153   105.815967    47.318532   -66.085226
0.066000   -99.532535   -12.288472    90.890956    84.928381   -23.570853  -106.248105
0.067200   -58.148091    60.545197   108.284051    22.371091   -89.419314   -92.137998
0.068400    17.215340   108.731591    66.490977   -60.213593  -114.310250   -24.745581
0.069600    95.156848    97.250555   -20.276216  -112.340559   -66.157594    59.219826
0.070800   111.001518    22.089364   -91.458627   -91.216365    19.283517   105.548417
0.072000    61.609624   -54.392848  -103.368987   -25.930776    79.210859    88.844115
0.073200    -9.240907   -93.710146   -66.211058    41.312878   101.768739    38.079972
0.074400   -73.433828   -95.512958    -0.871075    93.270010    77.977890   -33.670748
0.075600  -105.939233   -48.064735    72.415041   105.593889     7.373286  -102.444403
0.076800   -86.911002    37.484049   112.491810    48.585085   -73.489634  -104.585524
0.078000    -6.379069    98.301383    81.049299   -36.481040  -108.305245   -47.023149
0.079200    70.063629   100.081793     6.936130   -88.319284   -76.531308    26.428862
0.080400   101.476471    51.255682   -60.252876   -95.481270   -17.352732    81.471283
0.081600    81.743476   -15.030809   -96.521140   -61.278487    52.205447   100.109115
0.082800    27.275934   -79.068666   -90.971939     6.431547    98.638175    67.992057
0.084000   -46.999685  -104.439020   -34.422456    80.134157    97.983113    -7.391188
0.085200  -103.510289   -69.933883    48.770683   105.865436    34.387016   -81.542923
0.086400   -92.145348    10.504821   100.116199    67.503787   -46.994548  -103.257793
0.087600   -31.128802    76.083809    89.665347    -2.435936   -90.186948   -67.601914
0.088800    33.370329    94.555451    42.007811   -63.426622   -91.822857    -9.620149
0.090000    86.184975    79.590751   -23.077699   -96.680263   -51.558946    58.137121
0.091200   100.167454    18.343147   -87.372070   -84.852266    22.612470   101.634190
0.092400    55.443565   -60.911454  -101.115992   -15.377452    87.658469    85.016842
0.093600   -22.633009  -103.026269   -54.255255    58.465339    96.304393    15.941963
0.094800   -83.319988   -80.347814    21.692166    94.380649    53.637635   -51.810116
0.096000   -94.625333   -23.812114    72.460731    81.008301    -7.545628   -88.763793
0.097200   -63.096274    40.108624    95.343142    34.327107   -67.604709   -87.472034
0.098400    -1.389652    88.873649    71.324056   -36.218888   -99.922314   -39.813515
0.099600    71.553580    95.997740     1.776437   -94.493325   -71.805799    34.805447
0.100800   101.649008    40.713349   -73.550472   -93.423585    -0.434266    91.093667
0.102000    70.297186   -36.117294   -98.036206   -37.825823    65.577303    87.360276
0.103200     3.579820   -85.880551   -70.490986    27.395530    88.413539    40.955770
0.104400   -55.195609   -87.518959   -15.854136    76.605884    74.583833   -15.919368
0.105600   -88.126196   -53.571607    49.299577    94.217587    26.073704   -75.245152
0.106800   -83.236130    12.679411    92.487721    60.130273   -47.899005   -98.615968
0.108000   -25.660193    78.478201    84.200176   -14.661859   -94.579418   -57.530148
