##TITLE=1D-13C-1-2-5-328-110-"no"-"yes"
##JCAMP-DX=5.01 $$ Magritek Spinsolve SPA1903 2.0.4.4423
##DATA TYPE=NMR FID
##DATA CLASS=NTUPLES
##ORIGIN=SPA1903 at Magritek
##OWNER=Copyright (C) 2025 by Magritek
##LONGDATE=2025/03/17 12:00:51.188
##.OBSERVE FREQUENCY=15.4860999900848
##.OBSERVE NUCLEUS=^13C
##.DELAY=( 20,  2000)
##.ACQUISITION MODE=SIMULTANEOUS
##.FIELD= 1.5
##.AVERAGES= 1
##.DIGITISER RES=16
##.SHIFT REFERENCE=(INTERNAL, Water, 4096, 0)
##$REFERENCE_POINT= 796.529    $$ Referencing label
$$      Distance of the zero axis position (in Hz) from the last data
$$      point (right edge); positive values -> right edge is below 0 Hz
##SPECTROMETER/DATA SYSTEM=Magritek
##SAMPLE DESCRIPTION=solvent=Water
$$ Bruker specific parameters
$$ --------------------------
##$AUNMP=   <proc_1d_nosref>
##$INSTRUM= <Magritek>
##$SI=      8192
##$TD=      8192
##$TDeff=   8192
##$SW=      322.870200
##$BF1=     15.4860999900848
##$SF=      15.4843965190859
##$LB=      0
##$PHC0=    216.4
##$PHC1=    0.0
##$REVERSE= yes
$$ End of Bruker specific parameters
$$ ---------------------------------
##NTUPLES=NMR FID
##VAR_NAME=        TIME,            FID/REAL,            FID/IMAG, PAGE NUMBER
##SYMBOL=             X,                   R,                   I,           N
##VAR_TYPE= INDEPENDENT,           DEPENDENT,           DEPENDENT,        PAGE
##VAR_FORM=        AFFN,                AFFN,                AFFN,        AFFN
##VAR_DIM=         8192,                8192,                8192,           2
##UNITS=        SECONDS,     ARBITRARY UNITS,     ARBITRARY UNITS,            
##FIRST=              0,                   0,                   0,           1
##LAST=    1.638199e+00,  -0.479902596580373,  -0.239047858869856,           2
##MIN=                0,   -1751.64056986867,   -1728.01475267918,           1
##MAX=     1.638199e+00,     1701.9060368401,    1829.97300540794,           2
##FACTOR=             1,                   1,                   1,           1
##PAGE=N=1
##DATA TABLE=(X++(R..R)), XYDATA
0.000000     0.000000   737.873313 -1321.662772 -1705.325453    62.798405  1693.893620
0.001200  1222.055851  -738.515413 -1751.640570  -596.615686  1245.391237  1530.748209
0.002400   -33.673836 -1524.346702 -1155.243002   592.071214  1591.504827   674.206140
0.003600 -1042.204994 -1495.287117  -153.218793  1374.865478  1258.149598  -388.320324
0.004800 -1588.379743  -864.753517   936.191260  1619.969063   316.331834 -1404.218143
0.006000 -1416.666513   336.674742  1701.906037   963.688712  -990.258655 -1730.300744
0.007200  -315.087660  1503.286226  1450.997261  -407.189531 -1749.428067  -908.050268
0.008400  1052.671686  1681.890417   226.057153 -1480.565573 -1347.972528   429.229072
0.009600  1643.247607   822.292824  -974.565225 -1554.549840  -249.440772  1329.201598
0.010800  1272.850342  -311.699039 -1493.372181  -868.907433   793.633575  1496.910870
0.012000   399.478539 -1181.193391 -1341.051319   118.848539  1459.194426  1036.711904
0.013200  -661.076036 -1580.771486  -565.621919  1180.389076  1494.055976   -50.902279
0.014400 -1564.811295 -1149.226227   710.578031  1701.783583   572.854328 -1280.974302
0.015600 -1541.973654   129.125639  1629.033352  1085.452779  -789.986279 -1658.154478
0.016800  -468.700868  1271.229541  1420.875192  -174.300951 -1506.182949  -977.226617
0.018000   709.790151  1499.309994   475.992330 -1102.541923 -1330.436850    33.686737
0.019200  1335.265700  1034.011255  -507.624161 -1445.101311  -644.180317   949.678009
0.020400  1412.754200   156.391935 -1323.066283 -1203.969219   412.518438  1553.255286
0.021600   788.524790  -976.691529 -1555.496328  -197.538808  1423.632379  1287.182409
0.022800  -465.537401 -1641.241714  -771.230009  1061.908822  1561.562791   119.004315
0.024000 -1454.708827 -1210.147627   521.857925  1581.733388   687.732694 -1022.988576
0.025200 -1450.388804  -100.834622  1338.983684  1125.535069  -435.336906 -1440.589971
0.026400  -689.625015   873.647049  1367.476106   219.782369 -1184.977109 -1164.061323
0.027600   262.980929  1380.528019   833.337351  -737.680194 -1430.691741  -386.337550
0.028800  1156.165409  1307.748387  -156.544998 -1454.616203  -963.312016   742.085156
0.030000  1556.291076   441.171882 -1237.157562 -1382.382992   197.789580  1543.609580
0.031200   963.950320  -825.246951 -1577.086158  -365.371281  1284.197493  1317.380418
0.032400  -270.415609 -1491.214196  -857.952028   806.334166  1449.993955   310.885540
0.033600 -1164.273000 -1197.713792   200.326026  1322.085505   842.780549  -639.907607
0.034800 -1344.006668  -431.479559   993.930814  1226.939069   -11.847811 -1254.316339
0.036000  -994.261375   484.897757  1400.994976   608.109761  -960.495200 -1380.518046
0.037200   -86.793855  1343.941752  1116.669224  -506.021095 -1519.041313  -635.165902
0.038400  1053.790985  1432.689000    17.583822 -1419.508500 -1080.140239   593.966352
0.039600  1510.727636   543.924238 -1073.034185 -1335.978786    40.627178  1330.500721
0.040800   966.721148  -557.318679 -1376.060798  -518.651644   945.870106  1235.564046
0.042000    39.857504 -1183.675830  -974.636327   402.626475  1285.487951   625.095719
0.043200  -791.139681 -1257.732062  -199.091208  1118.261053  1094.206289  -276.576401
0.044400 -1332.188067  -766.522916   765.050809  1377.062188   290.742353 -1181.235730
0.045600 -1196.802881   280.539640  1427.858631   800.951280  -832.022913 -1431.230335
0.046800  -243.214665  1246.989439  1179.200168  -350.871812 -1422.832713  -719.921828
0.048000   855.816863  1345.162226   184.910901 -1179.246930 -1070.867645   336.658403
0.049200  1300.287865   674.258614  -743.638757 -1235.606486  -242.177680  1023.446145
0.050400  1048.762726  -178.377093 -1191.581227  -768.887927   585.665687  1247.702421
0.051600   403.324668  -944.323856 -1168.475066    43.584686  1240.134721   928.273171
0.052800  -551.291873 -1371.644917  -494.624638  1018.476246  1283.372166   -55.420700
0.054000 -1344.739254  -953.755159   633.826521  1428.565273   437.410252 -1092.850928
0.055200 -1246.777931   139.728092  1325.162178   855.381582  -650.203270 -1320.851426
0.056400  -368.339470  1005.378811  1127.963219  -107.111370 -1178.717860  -815.185684
0.057600   515.146458  1209.913031   443.724611  -844.892220 -1121.788402   -55.324920
0.058800  1090.349970   924.413786  -366.830723 -1231.877399  -608.400876   781.457812
0.060000  1235.044733   167.143772 -1138.960880 -1051.541644   347.278526  1339.265074
0.061200   676.016520  -842.337417 -1321.266065  -151.207618  1207.633561  1060.015687
0.062400  -410.570011 -1371.135086  -619.357410   888.648595  1273.423848    84.004551
0.063600 -1193.474850  -984.136390   419.162446  1275.905419   563.459079  -815.616609
0.064800 -1172.232932  -109.591260  1058.335864   930.656399  -309.494909 -1161.469101
0.066000  -614.117700   666.643681  1138.159766   243.555316  -953.960803 -1015.625354
0.067200   155.870050  1160.831298   756.945650  -587.590802 -1237.541366  -368.582951
0.068400   981.648976  1139.850110  -122.796814 -1252.933183  -833.176377   640.171681
0.069600  1329.388181   349.387795 -1066.777220 -1147.365422   205.130082  1290.010613
0.070800   760.903975  -701.255657 -1270.666244  -266.761079  1042.049283  1041.792480
0.072000  -221.713236 -1179.308865  -688.735292   622.324334  1147.574474   287.526178
0.073200  -890.740854  -990.175827    95.764268  1063.337266   749.461560  -463.085767
0.074400 -1124.356527  -434.186649   798.077091  1078.075689    41.769263 -1063.127522
0.075600  -888.054231   396.082001  1224.030583   537.144795  -833.768085 -1184.117778
0.076800   -57.675435  1152.351992   930.556564  -457.573530 -1279.675563  -510.274856
0.078000   899.956304  1182.903388    -6.506154 -1162.214505  -862.867083   489.281710
0.079200  1222.962598   444.799481  -856.881172 -1085.930843    11.753693  1067.819988
0.080400   809.326521  -412.172643 -1111.553375  -463.494266   725.559648  1030.089384
0.081600    98.499982  -949.531594  -857.406348   273.895298  1080.014532   584.548342
0.082800  -625.843154 -1094.557204  -226.216277   936.296993   971.498354  -198.824999
0.084000 -1159.662605  -690.425656   650.267436  1198.048322   252.419786 -1016.906089
0.085200 -1029.864502   250.174304  1222.098182   667.497409  -716.342358 -1201.881039
0.086400  -189.232469  1038.870938   964.140005  -297.035537 -1164.339653  -589.816536
0.087600   689.975558  1092.888753   165.528748  -929.300918  -882.170993   214.492033
0.088800  1030.545465   600.255717  -540.388598 -1026.173954  -284.090377   802.178782
0.090000   936.709037   -60.831306  -999.902930  -733.438405   437.364355  1102.816581
0.091200   421.466677  -800.611398 -1057.567915     2.348505  1085.867701   828.348140
0.092400  -468.606518 -1198.329917  -432.243008   880.914716  1092.714305   -57.234440
0.093600 -1137.341794  -790.159130   532.287799  1173.204751   351.933487  -881.388981
0.094800 -1009.561479    94.713892  1051.822688   711.109654  -481.742558 -1063.968412
0.096000  -351.388177   766.496109   943.710157   -12.104403  -935.557210  -729.666065
0.097200   350.658350  1010.803031   453.143773  -655.691363  -983.080387  -115.344950
0.098400   905.237564   833.544282  -262.967702 -1060.559024  -562.682467   650.295521
0.099600  1080.292901   171.196062  -963.915634  -910.667362   282.874931  1140.374624
0.100800   580.863946  -713.774181 -1112.752755  -120.840101  1012.714421   878.449012
0.102000  -341.699575 -1123.881607  -507.366088   722.669067  1035.412794    77.117617
0.103200  -947.108763  -797.049909   309.820404  1012.254407   474.504038  -618.881299
0.104400  -950.426026  -141.092979   823.660541   796.013789  -180.532523  -939.722562
0.105600  -569.915371   492.871530   976.919235   276.724788  -778.223851  -901.169700
0.106800    87.951604   996.013863   693.126359  -484.868800 -1083.351202  -332.568584
0.108000   848.373417   978.101649  -120.267593 -1073.463313  -684.902996   558.287170
