##TITLE=1D-13C-1-5-5-328-110-"no"-"yes"
##JCAMP-DX=5.01 $$ Magritek Spinsolve SPA1903 2.0.4.4423
##DATA TYPE=NMR FID
##DATA CLASS=NTUPLES
##ORIGIN=SPA1903 at Magritek
##OWNER=Copyright (C) 2025 by Magritek
##LONGDATE=2025/02/12 14:29:31.130
##.OBSERVE FREQUENCY=15.4861775226891
##.OBSERVE NUCLEUS=^13C
##.DELAY=( 20,  5000)
##.ACQUISITION MODE=SIMULTANEOUS
##.FIELD= 1.5
##.AVERAGES= 1
##.DIGITISER RES=16
##.SHIFT REFERENCE=(INTERNAL, Water, 4096, 0)
##$REFERENCE_POINT= 796.520    $$ Referencing label
$$      Distance of the zero axis position (in Hz) from the last data
$$      point (right edge); positive values -> right edge is below 0 Hz
##SPECTROMETER/DATA SYSTEM=Magritek
##SAMPLE DESCRIPTION=solvent=Water
$$ Bruker specific parameters
$$ --------------------------
##$AUNMP=   <proc_1d_nosref>
##$INSTRUM= <Magritek>
##$SI=      8192
##$TD=      8192
##$TDeff=   8192
##$SW=      322.868600
##$BF1=     15.4861775226891
##$SF=      15.4844740431616
##$LB=      0
##$PHC0=    217.8
##$PHC1=    0.0
##$REVERSE= yes
$$ End of Bruker specific parameters
$$ ---------------------------------
##NTUPLES=NMR FID
##VAR_NAME=        TIME,            FID/REAL,            FID/IMAG, PAGE NUMBER
##SYMBOL=             X,                   R,                   I,           N
##VAR_TYPE= INDEPENDENT,           DEPENDENT,           DEPENDENT,        PAGE
##VAR_FORM=        AFFN,                AFFN,                AFFN,        AFFN
##VAR_DIM=         8192,                8192,                8192,           2
##UNITS=        SECONDS,     ARBITRARY UNITS,     ARBITRARY UNITS,            
##FIRST=              0,                   0,                   0,           1
##LAST=    1.638199e+00,   0.106318536034942,  -0.119293576560577,           2
##MIN=                0,   -2597.83567101752,   -2456.96504612321,           1
##MAX=     1.638199e+00,    2485.11792131592,    2684.80276880586,           2
##FACTOR=             1,                   1,                   1,           1
##PAGE=N=1
##DATA TABLE=(X++(R..R)), XYDATA
0.000000     0.000000  1076.924139 -1967.041132 -2507.596410    98.057292  2485.117921
0.001200  1811.106242 -1067.859265 -2597.835671  -920.260179  1843.261434  2283.049125
0.002400   -46.836609 -2243.035722 -1701.388632   857.343124  2351.027045  1007.691739
0.003600 -1532.985464 -2206.042605  -212.697108  2022.759339  1815.707210  -573.429293
0.004800 -2284.971228 -1246.804067  1329.965485  2320.996001   469.102299 -1991.534733
0.006000 -2023.204765   441.229646  2380.331556  1400.149771 -1321.292780 -2434.230976
0.007200  -534.960367  2043.747564  2089.504977  -456.807467 -2427.512093 -1381.226744
0.008400  1360.310036  2396.387939   477.204101 -1998.720578 -1989.099732   451.844181
0.009600  2303.550165  1313.856722 -1257.068727 -2244.220473  -491.998192  1812.460922
0.010800  1887.091465  -304.131330 -2099.744858 -1351.404037  1022.881456  2150.877230
0.012000   666.544946 -1618.863021 -1935.973113    80.738900  2005.120797  1514.522136
0.013200  -830.711105 -2202.551002  -878.346291  1561.273108  2093.924835    40.864731
0.014400 -2070.839338 -1637.905083   820.616148  2288.342531   929.807320 -1604.833478
0.015600 -2149.957398    -8.779426  2121.552794  1597.346993  -877.612669 -2233.342080
0.016800  -839.145471  1563.248896  2020.418450    -7.787699 -1986.164386 -1493.977481
0.018000   788.934265  2052.448232   832.949096 -1352.725247 -1891.154549  -150.332207
0.019200  1763.853635  1536.265481  -544.446999 -1953.103660 -1004.998882  1151.936080
0.020400  1932.624948   378.834492 -1669.618161 -1707.208915   365.127872  2017.516905
0.021600  1193.803834 -1113.741113 -2068.204732  -477.033249  1726.252892  1807.417984
0.022800  -355.411219 -2090.339737 -1229.732749  1156.424588  2098.681625   443.106469
0.024000 -1744.723866 -1758.640665   382.452126  2023.085103  1171.240311 -1098.348050
0.025200 -1991.122506  -444.544632  1618.831716  1679.879823  -292.005192 -1872.396557
0.026400 -1172.420691   926.383805  1890.072506   570.972442 -1436.189799 -1703.881936
0.027600   103.032692  1783.548515  1293.848821  -762.298768 -1899.863302  -737.061303
0.028800  1346.594322  1811.439425    40.651962 -1806.397347 -1431.445542   720.380236
0.030000  1983.480892   803.718103 -1370.515072 -1869.521312   -54.613364  1840.516772
0.031200  1446.021125  -751.152422 -1987.404510  -755.176534  1371.497877  1785.898824
0.032400    19.768394 -1744.435294 -1353.688987   688.463677  1848.128972   734.779123
0.033600 -1227.626634 -1655.804832  -102.456722  1535.957466  1321.433671  -475.146505
0.034800 -1701.585711  -868.988624  1010.372725  1663.615018   314.881242 -1420.247666
0.036000 -1456.846389   279.542562  1722.434122  1073.880835  -922.002949 -1810.416360
0.037200  -455.782252  1484.207401  1602.169820  -270.951896 -1830.188749 -1124.240116
0.038400   995.576342  1878.173075   413.072529 -1560.055363 -1575.719777   362.369728
0.039600  1816.657865  1007.084582 -1017.964777 -1748.162104  -327.887467  1453.717031
0.040800  1423.759225  -330.535533 -1639.503404  -935.287302   868.477944  1580.505351
0.042000   390.401566 -1237.483837 -1365.219237   141.443254  1472.527794  1030.031103
0.043200  -659.231769 -1556.237754  -570.900056  1106.497952  1455.090622    42.376102
0.044400 -1454.447631 -1200.215830   553.559500  1656.772989   711.113093 -1128.218402
0.045600 -1582.076685   -79.063782  1532.479462  1260.794903  -584.050665 -1720.151984
0.046800  -707.331758  1190.124522  1582.925016    13.091904 -1541.425072 -1178.501203
0.048000   614.941759  1629.202404   637.094969 -1125.396677 -1470.138327    -9.416068
0.049200  1412.914876  1092.389705  -516.101401 -1467.115659  -656.826445   932.135886
0.050400  1394.028559   172.535891 -1248.208242 -1153.623088   324.345890  1416.307401
0.051600   817.325159  -780.613493 -1466.127345  -368.004775  1216.773404  1327.148865
0.052800  -214.641937 -1515.292887  -955.794325   800.987001  1589.357098   406.010531
0.054000 -1305.190690 -1400.330902   262.619633  1596.618572   926.826680  -888.118229
0.055200 -1577.744769  -312.303098  1313.059038  1289.935505  -310.565314 -1493.434120
0.056400  -829.142814   824.861330  1432.589682   297.634347 -1156.984460 -1182.514996
0.057600   196.999742  1310.820675   849.576098  -614.471797 -1335.877089  -457.353836
0.058800   976.410303  1236.229364     5.186720 -1242.003163  -999.066363   462.024424
0.060000  1394.684270   637.059997  -934.142130 -1379.789137  -110.305517  1314.903673
0.061200  1119.662824  -461.940984 -1486.819807  -679.690436   985.104160  1439.640565
0.062400    92.393214 -1375.105395 -1114.055771   520.355682  1482.532397   612.178909
0.063600  -987.434469 -1360.808951   -64.938307  1300.242802  1045.073444  -481.482289
0.064800 -1376.781088  -586.163609   879.301975  1260.668431   128.747786 -1148.528417
0.066000 -1034.423848   331.453419  1283.284458   671.228225  -739.019588 -1254.022556
0.067200  -266.739785  1056.250793  1116.325911  -193.210194 -1294.370826  -807.078883
0.068400   688.326727  1345.284047   346.960184 -1088.968600 -1192.955745   182.692223
0.069600  1347.329523   840.145908  -721.354167 -1379.100302  -314.902319  1125.427005
0.070800  1154.666512  -234.312194 -1310.367781  -759.158392   706.085959  1276.300939
0.072000   280.740637 -1028.770603 -1057.883598   186.715959  1169.251481   728.671572
0.073200  -566.673347 -1162.844782  -367.396846   861.763471  1056.457515   -19.245414
0.074400 -1079.189749  -838.790051   421.936986  1188.617198   519.619925  -797.532693
0.075600 -1167.650719   -99.295744  1123.481358   974.466796  -405.169987 -1295.061981
0.076800  -571.776132   861.205526  1228.882146    74.333627 -1184.045114  -970.483889
0.078000   462.767044  1310.044670   512.871189  -896.906295 -1167.946572    -9.431010
0.079200  1132.667961   877.818360  -441.459396 -1200.005966  -477.899433   807.276540
0.080400  1070.160470    45.251369  -995.730620  -830.880909   315.454656  1080.097275
0.081600   550.460748  -651.108196 -1059.713042  -182.550683   907.990660   908.028704
0.082800  -180.618303 -1069.428363  -674.600593   566.571776  1139.513206   308.967275
0.084000  -921.126559 -1022.955302   142.177623  1141.452279   739.685972  -588.890176
0.085200 -1206.283147  -318.362537   971.168809  1043.341149  -185.398587 -1169.232831
0.086400  -693.635327   623.809638  1150.885045   259.321793  -931.380630  -958.970896
0.087600   180.527859  1066.811842   637.350816  -541.877259 -1036.212124  -285.407050
0.088800   784.592477   900.990562   -48.458658  -934.164953  -706.499659   370.320131
0.090000  1010.832671   436.360889  -673.404574  -985.829027  -104.161298   927.098741
0.091200   849.752064  -285.168749 -1109.277826  -563.757499   706.315104  1108.516129
0.092400   125.510236 -1021.665204  -903.460610   344.492703  1175.106185   538.073568
0.093600  -779.582491 -1108.090429   -42.452708  1046.919310   814.421551  -400.407711
0.094800 -1089.153870  -441.644028   724.696882   982.266060    37.463938  -921.187420
0.096000  -731.384909   317.185002   944.659622   444.601170  -562.254446  -896.309972
0.097200  -162.822803   771.646538   779.207682  -153.362162  -898.144189  -570.400155
0.098400   441.367487   942.727493   310.037916  -733.666856  -899.926551    57.532315
0.099600   964.050895   682.077693  -452.523967 -1039.451475  -343.849697   793.599438
0.100800   957.518088   -81.357787 -1028.217126  -682.766802   515.185948  1057.635203
0.102000   280.224442  -826.977714  -898.420504   136.674218   984.161802   606.580728
0.103200  -504.722512  -966.533992  -239.497766   749.682241   804.832075  -103.195454
0.104400  -856.651849  -570.799923   385.913022   869.362651   310.307164  -613.857806
0.105600  -801.123457   -25.158397   785.891243   653.190027  -266.562669  -882.219375
0.106800  -433.452131   564.193293   893.961331   114.007729  -832.670565  -752.151636
0.108000   270.658237   964.181455   463.634428  -621.354744  -942.627954   -86.234482
