##TITLE=1D-13C-1-2-5-328-110-"no"-"yes"
##JCAMP-DX=5.01 $$ Magritek Spinsolve SPA1903 2.0.4.4423
##DATA TYPE=NMR FID
##DATA CLASS=NTUPLES
##ORIGIN=SPA1903 at Magritek
##OWNER=Copyright (C) 2025 by Magritek
##LONGDATE=2025/03/17 11:56:23.465
##.OBSERVE FREQUENCY=15.4860999900848
##.OBSERVE NUCLEUS=^13C
##.DELAY=( 20,  2000)
##.ACQUISITION MODE=SIMULTANEOUS
##.FIELD= 1.5
##.AVERAGES= 1
##.DIGITISER RES=16
##.SHIFT REFERENCE=(INTERNAL, Water, 4096, 0)
##$REFERENCE_POINT= 796.529    $$ Referencing label
$$      Distance of the zero axis position (in Hz) from the last data
$$      point (right edge); positive values -> right edge is below 0 Hz
##SPECTROMETER/DATA SYSTEM=Magritek
##SAMPLE DESCRIPTION=solvent=Water
$$ Bruker specific parameters
$$ --------------------------
##$AUNMP=   <proc_1d_nosref>
##$INSTRUM= <Magritek>
##$SI=      8192
##$TD=      8192
##$TDeff=   8192
##$SW=      322.870200
##$BF1=     15.4860999900848
##$SF=      15.4843965190859
##$LB=      0
##$PHC0=    217.6
##$PHC1=    0.0
##$REVERSE= yes
$$ End of Bruker specific parameters
$$ ---------------------------------
##NTUPLES=NMR FID
##VAR_NAME=        TIME,            FID/REAL,            FID/IMAG, PAGE NUMBER
##SYMBOL=             X,                   R,                   I,           N
##VAR_TYPE= INDEPENDENT,           DEPENDENT,           DEPENDENT,        PAGE
##VAR_FORM=        AFFN,                AFFN,                AFFN,        AFFN
##VAR_DIM=         8192,                8192,                8192,           2
##UNITS=        SECONDS,     ARBITRARY UNITS,     ARBITRARY UNITS,            
##FIRST=              0,                   0,                   0,           1
##LAST=    1.638199e+00,    -1.0508543239566,    0.19962759109386,           2
##MIN=                0,   -16953.9140547593,   -16032.4585790112,           1
##MAX=     1.638199e+00,    16263.5315338729,    17558.7699487618,           2
##FACTOR=             1,                   1,                   1,           1
##PAGE=N=1
##DATA TABLE=(X++(R..R)), XYDATA
0.000000     0.000000  7014.141795 -13001.192254 -16350.477186   788.582700 16263.531534
0.001200 11721.799730 -7097.206121 -16953.914055 -5853.325696 12174.701229 14850.881519
0.002400  -531.674488 -14756.981688 -10936.363611  5849.816488 15384.999540  6328.532389
0.003600 -10318.809095 -14365.303870  -980.668914 13484.248924 11613.304964 -4263.728131
0.004800 -15091.223177 -7677.080107  9311.389610 15121.712885  2252.774234 -13594.734414
0.006000 -12703.795697  3923.236042 15761.220935  8168.180848 -9561.551729 -15560.244307
0.007200 -2263.295288 13942.989821 12808.559464 -4288.642366 -15949.676413 -7710.123785
0.008400  9948.195655 15049.747244  1573.575916 -13589.723744 -11849.814389  4356.641528
0.009600 14952.910584  7055.391996 -9295.957330 -13927.081847 -1541.113432 12361.312253
0.010800 11038.525987 -3499.211175 -13593.960062 -7193.070981  7856.929279 13266.339630
0.012000  2531.865930 -11143.756163 -11241.721263  2170.030704 12961.909943  8166.131340
0.013200 -6676.713012 -13647.591039 -3843.509116 10952.402743 12305.275281 -1601.010962
0.014400 -13568.344423 -8854.973310  6850.915334 14290.176915  3983.888959 -11496.225366
0.015600 -12637.027777  2114.327712 14072.242892  8343.866974 -7557.139930 -13875.176584
0.016800 -3065.978003 11368.817880 11597.632700 -2492.882569 -13174.694699 -7394.259052
0.018000  7123.671234 12506.523356  2806.938149 -9945.313975 -10590.378437  1473.554910
0.019200 11687.205647  7676.813363 -5582.743203 -11953.683411 -3921.270347  8765.654123
0.020400 10974.059615   -75.509392 -11286.678988 -8870.711773  4626.954710 12655.883573
0.021600  5062.122837 -8917.489918 -11969.315278  -199.037114 11965.791126  9374.789142
0.022800 -4973.859057 -13232.024911 -4951.809388  9513.008843 12028.577799  -422.355392
0.024000 -12181.776757 -8727.514860  5411.730141 12665.835701  4262.178655 -9221.557229
0.025200 -11167.850639   601.332753 11361.422795  8012.857066 -4947.758593 -11564.113600
0.026400 -4136.194310  8065.443793 10402.098115   199.427187 -10195.543599 -8178.362841
0.027600  3747.913415 11022.224438  4928.480082 -7046.513692 -10517.855560 -1312.208985
0.028800  9654.263903  9019.387778 -2807.820508 -11384.674025 -5925.029676  6919.092350
0.030000 11275.168560  1759.884402 -10042.403889 -9600.583309  2860.393359 11965.175814
0.031200  6084.258859 -7482.681727 -11567.902832 -1191.365482 10466.508173  9060.106652
0.032400 -3463.929456 -11591.422166 -5287.286414  7502.548696 10712.796654   636.768547
0.033600 -9811.194958 -7981.941364  3281.192930 10220.483484  4807.656665 -6254.207250
0.034800 -9649.189205 -1349.359510  8426.146088  7894.586067 -2013.554665 -9392.092834
0.036000 -5578.249028  4972.281164  9731.525617  2687.990915 -7890.593860 -8912.994640
0.037200  1127.733543  9919.960379  6531.216015 -5021.607011 -10532.709900 -2981.859781
0.038400  8464.379627  9422.436687 -1490.903821 -10557.008820 -6327.451401  5764.449908
0.039600 10509.015193  2162.276068 -8700.038094 -8633.383101  2063.761962  9991.133075
0.040800  5462.994830 -5641.345689 -9523.979804 -1702.872073  7886.203376  7650.877625
0.042000 -1710.254018 -8761.664990 -5201.319806  4535.121653  8724.759234  2348.214234
0.043200 -6824.448839 -7652.986236   742.613807  8168.468965  5767.992744 -3601.058685
0.044400 -8766.459395 -3304.348620  6407.722197  8359.884758   -87.851883 -8497.533122
0.045600 -6432.155805  3573.101467  9287.155658  3597.775663 -6714.316035 -8802.972496
0.046800   223.978849  9031.792895  6436.058848 -4149.319278 -9423.176415 -3024.148265
0.048000  7015.801201  8319.253777  -721.395607 -8798.874806 -5781.161324  4317.537280
0.049200  8729.773863  2377.810614 -6522.051681 -7301.522070   640.750621  7666.555432
0.050400  5355.184439 -3394.260622 -7852.760435 -2782.607364  5437.404166  7049.310850
0.051600   334.056208 -6815.029973 -5934.903588  2202.991767  7891.279742  3963.798745
0.052800 -4969.373111 -7922.091020 -1132.428391  7208.825715  6814.514284 -2123.378413
0.054000 -8658.822395 -4400.606202  5543.971128  8582.315631   781.665734 -7969.914338
0.055200 -6678.149073  2913.293343  8750.202765  3646.500469 -5885.464619 -7961.385276
0.056400  -164.580614  7617.849042  5823.519011 -2990.513186 -7832.027512 -3077.621947
0.057600  5138.707178  6960.214993   476.355102 -6437.943513 -5573.613726  1946.575743
0.058800  7057.741748  3658.079839 -4093.794761 -6917.027732 -1476.499687  5823.341287
0.060000  6244.027451  -992.862234 -7247.343369 -4624.351424  3843.989701  7639.967260
0.061200  1993.965868 -6163.896206 -6823.618516   970.090498  7747.968073  4913.378527
0.062400 -4223.807019 -8084.306779 -1733.579603  6693.838856  6660.577312 -1554.075910
0.063600 -7729.945215 -4332.927078  4425.969561  7620.188002  1277.902127 -6485.268737
0.064800 -5985.011072  1748.470323  7023.129242  3725.858925 -3917.900993 -6715.715654
0.066000 -1361.614760  5537.257852  5563.843727 -1078.493533 -6199.427797 -3867.270450
0.067200  2941.370681  6276.746840  2184.193177 -4668.295527 -6001.668497    53.515830
0.068400  6170.107760  4769.343942 -2516.400304 -6845.906090 -2829.915129  4845.227115
0.069600  6694.515291   121.054535 -6791.552631 -5189.475610  3016.859576  7421.368680
0.070800  2487.485303 -5531.732371 -6558.322350   624.771614  6935.946244  4484.693490
0.072000 -3491.777443 -6903.046406 -1692.333495  5355.249873  5577.531671  -916.880398
0.073200 -6001.677071 -3735.722830  2869.540205  5859.725112  1809.507785 -4291.501039
0.074400 -5146.380605   138.949034  5155.364622  4018.976299 -1849.749720 -5590.425426
0.075600 -2708.547710  3601.677983  5723.282766   764.328434 -5326.971103 -4891.299467
0.076800  1655.319046  6235.449951  3144.829821 -3936.524212 -6275.986130  -718.378644
0.078000  5897.172908  5077.479888 -2182.008943 -6602.673688 -2723.806930  4434.019768
0.079200  6013.017156   159.363845 -5871.417328 -4533.460938  2450.068089  6183.305914
0.080400  2152.431918 -4288.145274 -5254.827017    45.777018  5105.920697  3976.613031
0.081600 -1915.716457 -5408.802063 -2262.894482  3515.920905  4889.459779   479.027573
0.082800 -4375.792477 -4070.160163  1061.809522  5042.050104  2981.221865 -2807.185027
0.084000 -5269.778852 -1300.792153  4317.144266  4770.011439  -630.652743 -5465.782563
0.085200 -3639.580375  2892.192558  5964.412249  1512.565378 -4918.726617 -5175.525497
0.086400  1073.075642  5980.009879  3395.035964 -3448.276519 -5950.035931  -957.037566
0.087600  5167.457099  4691.023568 -1594.235213 -5660.417757 -2628.005747  3426.711599
0.088800  5057.154851   583.806073 -4365.573002 -3944.305581  1118.987012  4679.055234
0.090000  2603.270431 -2471.008754 -4508.470590 -1250.935954  3425.205616  4113.979041
0.091200   -62.090902 -4321.021288 -3477.256407  1726.438504  5002.321909  2144.700769
0.092400 -3461.202300 -4917.162726  -281.522177  4884.277443  4081.558576 -1979.622484
0.093600 -5702.505689 -2165.348086  4149.106403  5137.239940  -332.268069 -5266.844363
0.094800 -3611.644281  2484.783273  5446.103884  1573.986565 -4198.190298 -4555.541188
0.096000   731.763435  4833.066256  2902.162271 -2333.117064 -4582.409608 -1344.333661
0.097200  3430.697866  3976.656678  -289.759921 -4063.048688 -2878.148007  1606.588817
0.098400  4102.509863  1798.169811 -2667.840645 -4056.479420  -517.384816  3776.452869
0.099600  3488.250244 -1090.888647 -4367.681135 -2369.213635  2588.818457  4541.822426
0.100800   877.482885 -4073.932595 -4001.654562  1192.492429  4939.886956  2454.492624
0.102000 -3123.984201 -4780.919173  -446.819340  4455.201822  3746.495620 -1691.983435
0.103200 -4940.837107 -1909.923367  3422.345653  4307.881911  -141.486171 -4204.112924
0.104400 -2970.799995  1777.481367  4163.250986  1452.903813 -2861.289388 -3567.509122
0.105600   -27.195230  3373.888682  2687.865567 -1077.425170 -3484.307645 -1841.548034
0.106800  1969.104107  3554.430513   905.411748 -2981.086667 -3345.795004   432.030096
0.108000  3793.329989  2557.814519 -1911.176211 -4204.655263 -1283.446691  3452.500037
