##TITLE=1D-13C-1-2-5-328-110-"no"-"yes"
##JCAMP-DX=5.01 $$ Magritek Spinsolve SPA1903 2.0.4.4423
##DATA TYPE=NMR FID
##DATA CLASS=NTUPLES
##ORIGIN=SPA1903 at Magritek
##OWNER=Copyright (C) 2025 by Magritek
##LONGDATE=2025/03/17 11:59:02.157
##.OBSERVE FREQUENCY=15.4860999900848
##.OBSERVE NUCLEUS=^13C
##.DELAY=( 20,  2000)
##.ACQUISITION MODE=SIMULTANEOUS
##.FIELD= 1.5
##.AVERAGES= 1
##.DIGITISER RES=16
##.SHIFT REFERENCE=(INTERNAL, Water, 4096, 0)
##$REFERENCE_POINT= 796.529    $$ Referencing label
$$      Distance of the zero axis position (in Hz) from the last data
$$      point (right edge); positive values -> right edge is below 0 Hz
##SPECTROMETER/DATA SYSTEM=Magritek
##SAMPLE DESCRIPTION=solvent=Water
$$ Bruker specific parameters
$$ --------------------------
##$AUNMP=   <proc_1d_nosref>
##$INSTRUM= <Magritek>
##$SI=      8192
##$TD=      8192
##$TDeff=   8192
##$SW=      322.870200
##$BF1=     15.4860999900848
##$SF=      15.4843965190859
##$LB=      0
##$PHC0=    217.1
##$PHC1=    0.0
##$REVERSE= yes
$$ End of Bruker specific parameters
$$ ---------------------------------
##NTUPLES=NMR FID
##VAR_NAME=        TIME,            FID/REAL,            FID/IMAG, PAGE NUMBER
##SYMBOL=             X,                   R,                   I,           N
##VAR_TYPE= INDEPENDENT,           DEPENDENT,           DEPENDENT,        PAGE
##VAR_FORM=        AFFN,                AFFN,                AFFN,        AFFN
##VAR_DIM=         8192,                8192,                8192,           2
##UNITS=        SECONDS,     ARBITRARY UNITS,     ARBITRARY UNITS,            
##FIRST=              0,                   0,                   0,           1
##LAST=    1.638199e+00,  -0.110890366413455,   0.499754520906351,           2
##MIN=                0,   -4404.03253796417,   -4277.85070596667,           1
##MAX=     1.638199e+00,    4257.75954376349,    4588.51099285568,           2
##FACTOR=             1,                   1,                   1,           1
##PAGE=N=1
##DATA TABLE=(X++(R..R)), XYDATA
0.000000     0.000000  1838.818186 -3347.153734 -4276.966630   193.588395  4257.759544
0.001200  3047.737836 -1882.602866 -4404.032538 -1481.868008  3165.582400  3842.823933
0.002400  -130.064378 -3830.647834 -2852.696962  1515.562408  3987.493150  1656.758969
0.003600 -2646.264729 -3740.397411  -327.691200  3476.044120  3106.156909 -1033.624563
0.004800 -3967.484292 -2103.211666  2382.926182  4031.709233   728.869657 -3546.105546
0.006000 -3486.359458   907.673030  4243.357335  2335.867783 -2518.297329 -4276.524738
0.007200  -711.508747  3764.353764  3557.129060 -1084.511527 -4351.815403 -2197.084999
0.008400  2656.600600  4173.197977   514.804241 -3709.801791 -3306.074544  1137.107521
0.009600  4092.712739  1992.198084 -2476.339151 -3842.964563  -526.745424  3335.345441
0.010800  3097.115793  -848.010098 -3707.480404 -2083.266591  2026.482528  3676.208860
0.012000   889.531136 -2972.869899 -3264.246729   401.788495  3611.089943  2465.277224
0.013200 -1722.297297 -3884.569665 -1285.883290  2977.055419  3623.602965  -233.530568
0.014400 -3856.220812 -2728.793843  1822.359865  4157.828603  1310.357819 -3208.448240
0.015600 -3726.983478   415.305861  4016.551185  2583.551354 -2033.504857 -4061.792861
0.016800 -1051.643949  3185.373606  3424.606692  -533.490951 -3732.225478 -2315.403001
0.018000  1853.423768  3673.261560  1039.865873 -2762.971844 -3187.833935   204.522935
0.019200  3315.493078  2433.210734 -1368.907705 -3524.387980 -1434.382420  2406.185381
0.020400  3380.798098   254.303505 -3259.470032 -2838.035074  1120.790556  3785.865932
0.021600  1793.705947 -2472.940993 -3728.837731  -349.136825  3519.639899  3028.064698
0.022800 -1258.343923 -3995.770460 -1744.727834  2681.505844  3752.910027   155.160606
0.024000 -3598.838764 -2846.136206  1402.785383  3848.774292  1526.742044 -2609.255039
0.025200 -3477.116556   -98.246935  3322.490026  2632.344243 -1217.358990 -3511.429724
0.026400 -1545.364678  2242.817914  3276.786761   367.060409 -2961.035598 -2712.979850
0.027600   807.729098  3367.220026  1860.896107 -1912.204473 -3400.303044  -762.904212
0.028800  2863.863038  3042.612058  -540.395466 -3535.035356 -2189.227186  1914.351749
0.030000  3697.727194   897.910008 -3054.951118 -3241.327762   627.025400  3749.807228
0.031200  2189.864092 -2113.734971 -3757.696029  -708.925285  3180.912124  3078.006345
0.032400  -815.912102 -3627.559702 -1928.169826  2097.156432  3460.938734   573.202800
0.033600 -2913.655243 -2781.207025   676.905755  3232.900717  1870.060728 -1695.837038
0.034800 -3182.898303  -844.761146  2488.255779  2823.960804  -233.320518 -3031.550761
0.036000 -2198.308503  1327.762459  3312.163691  1266.491729 -2405.796113 -3180.664836
0.037200   -10.591311  3240.886123  2512.291329 -1371.247992 -3602.873337 -1344.173236
0.038400  2627.908287  3329.753356  -142.852087 -3440.061232 -2422.092242  1602.965854
0.039600  3586.378313  1107.663397 -2687.194894 -3094.369319   298.460630  3244.134191
0.040800  2155.674365 -1525.023455 -3253.813307 -1012.227172  2389.934473  2834.963899
0.042000  -128.333077 -2873.866958 -2136.908983  1149.551320  3040.542861  1270.211876
0.043200 -2037.776007 -2887.866064  -243.588159  2725.936365  2411.550395  -856.141212
0.044400 -3134.638653 -1599.821628  1955.888795  3157.684685   448.135663 -2870.850470
0.045600 -2658.528361   874.355716  3352.763390  1676.093580 -2108.407637 -3292.683300
0.046800  -354.049224  3032.048166  2619.813866 -1051.822453 -3367.056123 -1491.183785
0.048000  2184.000121  3108.945574   192.569944 -2904.144784 -2370.525731  1029.035975
0.049200  3086.048330  1352.371315 -1957.432977 -2825.217244  -306.221503  2535.936544
0.050400  2299.003588  -681.686061 -2817.736566 -1567.369548  1563.985371  2827.605293
0.051600   690.594799 -2319.641209 -2567.343399   335.328362  2905.903363  1946.209438
0.052800 -1467.634408 -3132.971958  -922.867890  2497.832694  2862.478235  -364.900533
0.054000 -3176.066747 -2024.356661  1679.479075  3286.550855   781.262440 -2681.285850
0.055200 -2768.568469   581.565058  3152.190719  1787.325341 -1739.395440 -3042.454006
0.056400  -603.768726  2504.223347  2494.341822  -516.754635 -2821.488669 -1684.084370
0.057600  1437.208427  2769.486643   776.561789 -2127.359434 -2469.024214   156.503042
0.058800  2597.982083  1921.394136 -1094.388521 -2822.107376 -1132.875547  1976.803381
0.060000  2727.867053   123.751381 -2699.669737 -2233.711618  1034.421301  3076.116306
0.061200  1306.231374 -2121.916257 -2933.528622   -88.639985  2887.710414  2276.912082
0.062400 -1186.941370 -3170.423399 -1193.917355  2248.726892  2851.436422   -75.964474
0.063600 -2854.330231 -2085.405255  1229.289572  2969.913648  1040.923077 -2100.402809
0.064800 -2605.313355    49.951404  2567.188631  1944.430524  -987.127362 -2686.880368
0.066000 -1144.876444  1751.079034  2525.255258   258.750646 -2314.058278 -2108.782149
0.067200   645.701357  2655.222074  1470.164805 -1551.445424 -2738.342407  -560.329777
0.068400  2363.935046  2414.449198  -546.296104 -2894.691781 -1663.513808  1675.322883
0.069600  2962.178978   541.459858 -2583.976122 -2476.703480   734.279806  3008.640350
0.070800  1508.512083 -1849.818009 -2854.885095  -317.813899  2552.845171  2218.406727
0.072000  -813.193633 -2763.585157 -1301.338920  1681.936456  2552.032577   341.349242
0.073200 -2211.178612 -2065.735773   534.462566  2458.916216  1429.653826 -1309.451429
0.074400 -2478.636585  -668.396866  1969.722514  2262.003540  -204.874417 -2474.002466
0.075600 -1752.872587  1146.591806  2698.759938   922.991211 -2052.851289 -2522.219042
0.076800   163.711803  2687.447556  1870.120472 -1289.224265 -2862.390224  -864.708754
0.078000  2220.131878  2524.069072  -323.947322 -2739.154857 -1724.048709  1397.407621
0.079200  2735.053045   689.454170 -2157.631644 -2309.282290   354.920334  2521.277796
0.080400  1574.941821 -1250.023566 -2491.445939  -715.460133  1863.978179  2176.131625
0.081600  -122.357805 -2255.354822 -1664.385230   931.310065  2402.236336   986.967003
0.082800 -1623.749210 -2307.476460  -190.165678  2208.963707  1942.250056  -742.567642
0.084000 -2578.661032 -1254.206752  1656.726652  2560.060882   277.301967 -2397.061426
0.085200 -2108.540094   832.593388  2755.081044  1231.401056 -1839.055407 -2598.993273
0.086400  -111.848173  2488.177732  1964.512787  -972.194553 -2651.155547 -1028.210638
0.087600  1808.605721  2361.349213    33.478139 -2254.750326 -1759.548333   827.179604
0.088800  2349.322299  1029.479201 -1478.836797 -2185.064831  -289.350436  1943.571302
0.090000  1852.196860  -462.095879 -2243.637744 -1333.450313  1218.322958  2341.825129
0.091200   612.108299 -1930.349224 -2160.357308   295.253576  2455.130162  1583.964757
0.092400 -1293.615537 -2594.525878  -655.899883  2125.309700  2268.643213  -435.765130
0.093600 -2601.582040 -1505.495889  1463.959596  2570.973820   472.914489 -2165.203070
0.094800 -2083.365811   547.177645  2442.888741  1316.985865 -1382.896788 -2328.151628
0.096000  -431.289889  1922.861860  1903.992191  -385.540512 -2162.325391 -1330.429813
0.097200  1086.319980  2182.945119   658.792088 -1659.549436 -1979.077622    90.234996
0.098400  2074.226864  1569.996688  -863.859211 -2290.246322  -925.213672  1625.963201
0.099600  2215.678979    59.789291 -2215.911884 -1764.223278   901.378896  2480.465537
0.100800   974.187600 -1776.461192 -2323.242415    44.470824  2348.697203  1710.000663
0.102000 -1058.500875 -2477.223041  -807.209040  1833.566802  2155.948948  -180.296452
0.103200 -2235.131884 -1502.246086  1031.655180  2232.257762   706.813209 -1619.620978
0.104400 -1937.486305    64.482059  1939.798659  1468.019189  -745.112192 -2053.766417
0.105600  -907.483434  1324.688310  1973.326570   249.585832 -1814.818943 -1712.201384
0.106800   503.320766  2154.321838  1186.858971 -1288.787700 -2230.672595  -392.541270
0.108000  1982.119637  1908.132182  -567.575476 -2368.815674 -1211.442842  1472.469071
