##TITLE=1D-13C-1-2-5-328-110-"no"-"yes"
##JCAMP-DX=5.01 $$ Magritek Spinsolve SPA1903 2.0.4.4423
##DATA TYPE=NMR FID
##DATA CLASS=NTUPLES
##ORIGIN=SPA1903 at Magritek
##OWNER=Copyright (C) 2025 by Magritek
##LONGDATE=2025/03/17 11:57:13.027
##.OBSERVE FREQUENCY=15.4860999900848
##.OBSERVE NUCLEUS=^13C
##.DELAY=( 20,  2000)
##.ACQUISITION MODE=SIMULTANEOUS
##.FIELD= 1.5
##.AVERAGES= 1
##.DIGITISER RES=16
##.SHIFT REFERENCE=(INTERNAL, Water, 4096, 0)
##$REFERENCE_POINT= 796.529    $$ Referencing label
$$      Distance of the zero axis position (in Hz) from the last data
$$      point (right edge); positive values -> right edge is below 0 Hz
##SPECTROMETER/DATA SYSTEM=Magritek
##SAMPLE DESCRIPTION=solvent=Water
$$ Bruker specific parameters
$$ --------------------------
##$AUNMP=   <proc_1d_nosref>
##$INSTRUM= <Magritek>
##$SI=      8192
##$TD=      8192
##$TDeff=   8192
##$SW=      322.870200
##$BF1=     15.4860999900848
##$SF=      15.4843965190859
##$LB=      0
##$PHC0=    217.5
##$PHC1=    0.0
##$REVERSE= yes
$$ End of Bruker specific parameters
$$ ---------------------------------
##NTUPLES=NMR FID
##VAR_NAME=        TIME,            FID/REAL,            FID/IMAG, PAGE NUMBER
##SYMBOL=             X,                   R,                   I,           N
##VAR_TYPE= INDEPENDENT,           DEPENDENT,           DEPENDENT,        PAGE
##VAR_FORM=        AFFN,                AFFN,                AFFN,        AFFN
##VAR_DIM=         8192,                8192,                8192,           2
##UNITS=        SECONDS,     ARBITRARY UNITS,     ARBITRARY UNITS,            
##FIRST=              0,                   0,                   0,           1
##LAST=    1.638199e+00,   0.266588604884444,  -0.101867797033408,           2
##MIN=                0,    -11084.087955562,    -10464.644213586,           1
##MAX=     1.638199e+00,     10670.832185788,    11492.9741426814,           2
##FACTOR=             1,                   1,                   1,           1
##PAGE=N=1
##DATA TABLE=(X++(R..R)), XYDATA
0.000000     0.000000  4597.235258 -8456.456096 -10698.443221   508.060186 10670.832186
0.001200  7653.493885 -4709.963864 -11084.087956 -3748.926945  7972.326439  9649.963295
0.002400  -375.011805 -9618.917282 -7107.697710  3824.199598 10014.235578  4123.233606
0.003600 -6694.089965 -9361.418424  -713.683036  8767.141398  7657.020656 -2700.143085
0.004800 -9884.221241 -5134.342947  6019.891827  9973.309773  1631.961938 -8880.215745
0.006000 -8510.453145  2423.400527 10457.677756  5588.222913 -6278.651976 -10443.758013
0.007200 -1615.140088  9281.121566  8622.172461 -2783.795591 -10667.273971 -5242.179406
0.008400  6601.947339 10118.472384  1121.388857 -9101.155067 -7982.177448  2892.348381
0.009600 10016.615869  4760.797367 -6172.524168 -9330.218243 -1109.296698  8224.723772
0.010800  7431.613650 -2251.085928 -9058.507870 -4903.320101  5129.523019  8894.357742
0.012000  1892.184367 -7354.501514 -7692.705361  1247.033075  8721.354529  5705.770474
0.013200 -4343.257613 -9272.223355 -2828.522650  7280.247492  8505.539203  -833.025897
0.014400 -9234.615290 -6270.943968  4524.770010  9846.798348  2916.344197 -7779.569487
0.015600 -8756.994001  1265.975275  9619.009760  5898.666076 -5046.619527 -9574.128293
0.016800 -2258.128023  7715.252552  8028.441287 -1542.074846 -8971.735800 -5234.189406
0.018000  4701.899072  8625.219219  2121.119926 -6714.410058 -7361.249272   808.751782
0.019200  7933.774211  5449.354144 -3579.652598 -8245.173405 -2989.070618  5862.873504
0.020400  7725.821367   237.295923 -7730.898715 -6370.741829  2930.142710  8794.641281
0.021600  3817.944078 -5998.475395 -8493.973590  -456.155310  8272.214918  6787.366548
0.022800 -3217.364684 -9281.770057 -3746.319191  6478.321098  8561.982841   -21.624558
0.024000 -8464.738754 -6331.077057  3565.244731  8909.213163  3218.227604 -6307.627955
0.025200 -7925.332162   170.472343  7858.845940  5809.264613 -3203.532648 -8120.071891
0.026400 -3168.784086  5462.937157  7406.168770   431.775080 -7015.297053 -5945.284879
0.027600  2305.081311  7737.457702  3814.518552 -4709.293267 -7581.455585 -1289.622870
0.028800  6699.256467  6637.933852 -1647.523552 -8074.028881 -4562.953140  4663.199463
0.030000  8202.626000  1612.034102 -7075.410422 -7094.057196  1768.500559  8550.570575
0.031200  4637.743723 -5117.800331 -8401.539555 -1169.034124  7400.632758  6699.092058
0.032400 -2228.801171 -8275.975711 -4024.466866  5126.729133  7747.199227   796.536021
0.033600 -6859.016427 -5949.167531  2027.249489  7310.974181  3754.822506 -4219.371088
0.034800 -7023.974603 -1352.647782  5862.516442  5960.039447 -1054.607015 -6780.105385
0.036000 -4405.255403  3321.410867  7192.998065  2336.815232 -5554.895436 -6747.718139
0.037200   439.615958  7213.553558  5126.554365 -3390.192879 -7828.891052 -2541.407082
0.038400  6028.107088  7119.592295  -751.146265 -7697.310261 -4960.970698  3941.178455
0.039600  7817.895089  1949.325913 -6216.126713 -6558.567156  1175.844733  7285.272119
0.040800  4318.770164 -3832.714213 -7081.934520 -1649.233398  5592.562223  5881.575221
0.042000  -866.990574 -6402.862677 -4179.107480  3018.108225  6517.767010  2151.607172
0.043200 -4788.447852 -5921.504267    92.613058  5991.268607  4687.898823 -2318.964009
0.044400 -6637.512672 -2896.751556  4533.135300  6494.052218   396.732720 -6278.932200
0.045600 -5228.272586  2325.063790  7088.875413  3107.580260 -4824.244678 -6829.132817
0.046800  -246.751942  6683.918314  5203.013189 -2762.351695 -7180.075313 -2668.219225
0.048000  5060.979236  6447.733941  -155.093985 -6472.481332 -4665.890611  2830.534924
0.049200  6604.792875  2243.799342 -4622.592063 -5731.335227    10.906507  5625.064063
0.050400  4393.818112 -2098.617541 -5962.219729 -2625.863727  3777.910795  5617.752673
0.051600   775.024010 -5055.407082 -4908.428293  1247.217342  6059.047399  3498.310528
0.052800 -3478.241244 -6298.810726 -1344.874120  5402.221242  5563.769262 -1246.695311
0.054000 -6649.927937 -3767.980633  3933.812166  6735.786832  1056.090196 -5921.567422
0.055200 -5430.278710  1808.159696  6696.566297  3211.406842 -4173.696830 -6247.208219
0.056400  -593.100341  5618.902921  4788.490833 -1799.280749 -5976.128528 -2846.552741
0.057600  3563.709561  5545.288596   884.625857 -4743.260578 -4649.384615  1005.471576
0.058800  5438.958624  3321.629319 -2785.893083 -5564.990008 -1660.523266  4335.287012
0.060000  5188.489143  -321.666424 -5609.103954 -4048.361314  2617.923198  6130.612764
0.061200  2048.218889 -4633.694440 -5647.036591   355.131008  6019.955238  4210.061583
0.062400 -2941.331422 -6427.718302 -1831.553466  4996.432473  5510.973830  -777.226779
0.063600 -6000.619740 -3764.833900  3092.709496  6032.007327  1467.681383 -4780.778197
0.064800 -4972.736225   862.504193  5426.391639  3348.212811 -2657.505092 -5359.778692
0.066000 -1590.135952  4029.237145  4708.086766  -272.440204 -4825.985193 -3579.829087
0.067200  1903.186043  5152.053663  2260.193067 -3462.702260 -5096.382092  -466.017341
0.068400  4853.164437  4272.752356 -1623.568078 -5634.008088 -2728.417955  3675.361746
0.069600  5631.748934   510.762620 -5362.360141 -4516.864441  2032.835781  6009.153311
0.070800  2426.655037 -4151.060092 -5468.221074    30.932341  5396.315826  3960.884844
0.072000 -2327.794349 -5557.210581 -1880.977569  3931.362404  4760.930998  -156.314880
0.073200 -4676.999181 -3469.830987  1803.310811  4802.935688  2039.774835 -3104.127899
0.074400 -4488.463655  -503.836176  4073.872517  3786.398100 -1048.438638 -4703.957290
0.075600 -2734.636325  2662.871344  4949.349679  1131.113085 -4226.704298 -4415.459832
0.076800   917.881227  5196.076648  3057.923598 -2943.267668 -5362.267258 -1060.642509
0.078000  4649.178287  4521.450985 -1302.570022 -5428.275430 -2720.427215  3290.831735
0.079200  5128.147852   631.089419 -4581.375317 -4060.733788  1462.546330  5037.084069
0.080400  2328.354895 -3094.237744 -4564.733071  -547.537796  3989.591200  3674.511705
0.081600 -1032.559660 -4433.704318 -2441.745193  2441.213748  4315.323940  1039.039160
0.082800 -3435.131797 -3838.073043   355.573880  4229.155590  3033.334612 -1947.142334
0.084000 -4647.028615 -1656.502492  3446.535471  4395.226247   -89.697841 -4597.672986
0.085200 -3476.947503  2076.615170  5135.405417  1737.168570 -3889.413018 -4624.676362
0.086400   448.279272  4932.627275  3228.587914 -2483.940327 -5030.485366 -1276.223077
0.087600  3978.105672  4174.814467  -758.803012 -4575.508503 -2686.544558  2342.045442
0.088800  4350.069820  1103.391761 -3322.408502 -3672.730604   325.552262  3844.420762
0.090000  2758.245495 -1576.395318 -4008.441200 -1681.203560  2657.250569  3895.996074
0.091200   457.764875 -3668.344729 -3434.454906  1094.339029  4431.851604  2316.940229
0.092400 -2763.285210 -4500.969110  -634.475186  4122.367185  3797.194875 -1347.036293
0.093600 -4880.638110 -2252.224262  3231.600639  4589.975522   190.197236 -4343.469765
0.094800 -3418.873479  1698.931111  4628.028054  1792.117815 -3185.933639 -4095.611400
0.096000    36.065365  3930.388512  2933.842240 -1490.961994 -3985.242306 -1695.076419
0.097200  2564.541265  3694.650797   364.092479 -3347.386446 -2997.968911   893.413751
0.098400  3688.834173  2111.087396 -2031.405853 -3823.276120  -979.526372  3170.968811
0.099600  3496.712523  -508.151368 -3958.474606 -2570.450767  2036.757716  4236.620273
0.100800  1187.795922 -3459.090993 -3829.496219   660.316458  4357.165396  2564.479897
0.102000 -2443.289796 -4362.546199  -816.705078  3715.443753  3562.823138 -1032.547463
0.103200 -4253.292349 -2111.185555  2567.852521  3917.343637   444.911996 -3408.894237
0.104400 -2993.998630   978.974873  3614.208239  1860.138803 -2034.419919 -3401.222491
0.105600  -707.192305  2755.590492  2908.697122  -360.510153 -3199.666933 -2263.431774
0.106800  1410.251923  3497.816733  1376.062711 -2544.139666 -3453.643337   -68.963544
0.108000  3513.670344  2791.699705 -1460.901100 -4002.213565 -1562.590212  2942.008001
