##TITLE=1D-13C-1-5-5-328-110-"no"-"yes"
##JCAMP-DX=5.01 $$ Magritek Spinsolve SPA1903 2.0.4.4423
##DATA TYPE=NMR FID
##DATA CLASS=NTUPLES
##ORIGIN=SPA1903 at Magritek
##OWNER=Copyright (C) 2025 by Magritek
##LONGDATE=2025/02/12 14:30:30.967
##.OBSERVE FREQUENCY=15.4861775226891
##.OBSERVE NUCLEUS=^13C
##.DELAY=( 20,  5000)
##.ACQUISITION MODE=SIMULTANEOUS
##.FIELD= 1.5
##.AVERAGES= 1
##.DIGITISER RES=16
##.SHIFT REFERENCE=(INTERNAL, Water, 4096, 0)
##$REFERENCE_POINT= 796.520    $$ Referencing label
$$      Distance of the zero axis position (in Hz) from the last data
$$      point (right edge); positive values -> right edge is below 0 Hz
##SPECTROMETER/DATA SYSTEM=Magritek
##SAMPLE DESCRIPTION=solvent=Water
$$ Bruker specific parameters
$$ --------------------------
##$AUNMP=   <proc_1d_nosref>
##$INSTRUM= <Magritek>
##$SI=      8192
##$TD=      8192
##$TDeff=   8192
##$SW=      322.868600
##$BF1=     15.4861775226891
##$SF=      15.4844740431616
##$LB=      0
##$PHC0=    217.4
##$PHC1=    0.0
##$REVERSE= yes
$$ End of Bruker specific parameters
$$ ---------------------------------
##NTUPLES=NMR FID
##VAR_NAME=        TIME,            FID/REAL,            FID/IMAG, PAGE NUMBER
##SYMBOL=             X,                   R,                   I,           N
##VAR_TYPE= INDEPENDENT,           DEPENDENT,           DEPENDENT,        PAGE
##VAR_FORM=        AFFN,                AFFN,                AFFN,        AFFN
##VAR_DIM=         8192,                8192,                8192,           2
##UNITS=        SECONDS,     ARBITRARY UNITS,     ARBITRARY UNITS,            
##FIRST=              0,                   0,                   0,           1
##LAST=    1.638199e+00,-7.5958971585197e-03,  -0.191978382985986,           2
##MIN=                0,   -946.266883083456,   -910.565354467878,           1
##MAX=     1.638199e+00,    898.269524786946,     971.16087688249,           2
##FACTOR=             1,                   1,                   1,           1
##PAGE=N=1
##DATA TABLE=(X++(R..R)), XYDATA
0.000000     0.000000   393.836141  -708.311041  -913.600949    25.544508   898.269525
0.001200   664.488679  -385.817381  -946.266883  -339.589756   664.368279   834.861562
0.002400    -8.124442  -816.320900  -625.623742   310.243085   859.683861   373.013222
0.003600  -560.686530  -809.703586   -82.444993   742.219578   671.237091  -208.512904
0.004800  -842.706506  -461.894531   491.442222   860.260095   173.766304  -739.912182
0.006000  -747.380909   168.051371   884.456210   516.699959  -497.159976  -907.690264
0.007200  -194.415045   764.413266   776.256970  -177.829800  -906.496657  -507.690155
0.008400   513.508918   893.635167   169.212982  -751.588990  -739.951942   174.264972
0.009600   862.462461   486.699646  -474.938558  -841.319707  -180.524551   685.043599
0.010800   705.521488  -122.523159  -794.617314  -506.568445   392.359522   808.547135
0.012000   243.377861  -617.027222  -733.256502    37.336704   763.874343   568.394035
0.013200  -324.668367  -840.102514  -326.196574   602.784793   796.114748     5.577524
0.014400  -797.018267  -618.300927   327.095154   879.127890   342.962277  -625.715378
0.015600  -814.949723     7.831639   816.085901   607.564823  -347.957047  -860.795877
0.016800  -311.942974   610.488417   772.260497   -16.822015  -769.064460  -568.989163
0.018000   310.979002   795.092892   313.106683  -533.868442  -728.519102   -46.556661
0.019200   688.262348   590.045067  -224.051021  -762.557765  -383.760664   460.932800
0.020400   756.019089   131.205530  -666.288406  -658.865548   163.555908   799.576898
0.021600   454.359720  -454.775501  -810.266891  -165.720595   692.210709   700.480852
0.022800  -164.776521  -828.560769  -463.378949   475.677548   824.081442   151.232198
0.024000  -700.484620  -679.993758   172.478099   802.782054   440.910853  -453.208755
0.025200  -780.706579  -153.274198   651.831022   652.622951  -136.607528  -747.628836
0.026400  -448.285197   388.314036   748.866390   203.498119  -584.638452  -665.249857
0.027600    64.926946   718.097016   501.748990  -325.765002  -758.909812  -270.175178
0.028800   560.913720   715.275343   -10.541835  -734.174411  -557.692795   313.148536
0.030000   798.987641   297.296522  -573.302896  -741.952418     6.414049   752.705322
0.031200   563.794739  -328.343171  -805.010413  -282.148872   574.951795   715.554941
0.032400   -18.750683  -718.058652  -530.742403   303.068316   752.938598   276.522205
0.033600  -520.774797  -672.674309   -15.100729   648.904318   528.074116  -225.435063
0.034800  -705.006984  -334.489373   442.229355   685.975749    99.550102  -610.025931
0.036000  -584.845295   152.945296   721.803704   410.200700  -418.235172  -741.145751
0.037200  -147.529821   639.160775   640.790826  -155.700419  -766.577521  -426.755484
0.038400   446.328598   771.041213   131.322171  -666.258645  -628.119982   184.729361
0.039600   755.516632   387.215511  -448.627786  -721.051318  -106.377137   624.586661
0.040800   581.437031  -165.692296  -692.199859  -371.975104   388.362779   665.800826
0.042000   139.581161  -543.654716  -567.021368    89.901576   640.032117   419.988984
0.043200  -313.182410  -667.878007  -214.544376   501.587575   616.058721   -23.035996
0.044400  -644.945212  -485.104466   279.823056   711.461048   262.810317  -518.636862
0.045600  -662.854280    13.973641   676.326020   506.154970  -292.836389  -732.193188
0.046800  -258.308415   540.062385   661.748558   -35.121468  -674.788021  -475.670801
0.048000   302.462137   701.936579   238.105958  -510.964768  -621.389785    24.774102
0.049200   621.841721   454.036572  -256.086385  -647.425406  -257.632568   436.884527
0.050400   603.909150    41.552934  -567.730919  -489.015264   180.881667   636.697569
0.051600   327.025360  -386.759731  -641.551804  -112.416631   568.285978   557.740526
0.052800  -149.369929  -679.983853  -371.447117   403.582873   688.324027   119.867834
0.054000  -604.279030  -578.632786   170.123290   703.027116   360.579095  -429.235961
0.055200  -677.882315   -87.070643   598.741253   539.302322  -175.269976  -660.966098
0.056400  -332.309336   390.240928   622.842654   100.223486  -530.150534  -511.270723
0.057600   118.090189   596.000920   358.480921  -311.029841  -603.298961  -168.945015
0.058800   473.647067   547.910080   -44.248164  -588.430100  -422.474984   261.254069
0.060000   639.084085   236.284047  -470.917922  -605.998148    13.602895   623.630054
0.061200   465.659927  -271.383512  -674.616148  -243.837811   494.052319   622.369998
0.062400   -25.055527  -640.003117  -458.723575   289.843095   668.783244   220.560468
0.063600  -486.603074  -590.454477    26.614228   602.995359   434.970269  -261.005150
0.064800  -624.411603  -222.802894   437.906731   561.046016    11.654060  -549.808465
0.066000  -445.695881   199.352049   599.428106   270.883197  -380.590179  -572.726814
0.067200   -72.885790   520.844309   489.443478  -146.500769  -613.286379  -328.097051
0.068400   370.950147   615.845645   100.869789  -543.698469  -521.316560   148.956967
0.069600   639.349500   336.698591  -388.965259  -628.350409   -88.042569   553.326392
0.070800   505.124749  -163.427237  -620.640375  -310.216588   373.622091   586.603299
0.072000    81.597228  -512.638712  -475.380101   132.295703   565.780892   312.334133
0.073200  -311.714944  -553.676856  -130.649682   450.106154   486.915348   -66.345200
0.074400  -544.887762  -367.135364   261.200956   575.002641   192.163036  -435.159749
0.075600  -538.528088    22.407503   568.097075   415.241824  -260.989260  -618.585970
0.076800  -207.355365   462.362257   557.461410   -38.048394  -587.769097  -409.502491
0.078000   277.198694   617.496409   187.980164  -464.389723  -531.612005    51.823048
0.079200   559.684360   380.247748  -258.200088  -574.324652  -183.544743   420.876011
0.080400   503.027035   -21.713027  -509.242129  -381.487943   201.765091   538.947533
0.081600   227.314540  -361.050818  -513.283901   -40.113042   483.238647   420.196678
0.082800  -152.730475  -545.852558  -281.078223   336.907009   550.881144    84.660470
0.084000  -493.695411  -465.648906   140.383255   579.615926   303.799647  -351.064378
0.085200  -576.079018   -85.881546   512.216332   470.809762  -154.407901  -583.447339
0.086400  -285.892261   359.379439   553.910145    70.125952  -490.001902  -440.822392
0.087600   142.388011   540.022967   279.670584  -311.748079  -513.149248   -95.027091
0.088800   429.566939   435.674330   -82.394976  -500.790352  -317.687539   247.665398
0.090000   520.959963   161.106188  -401.132543  -479.183896    27.667673   509.648940
0.091200   373.986160  -228.009920  -561.551740  -198.788884   421.410858   521.446812
0.092400   -26.441242  -542.618759  -385.275057   251.217156   576.763917   184.936344
0.093600  -435.909168  -510.586563    51.245873   536.668259   353.470897  -255.306435
0.094800  -538.313860  -162.683701   400.360429   466.506823   -31.753104  -481.929761
0.096000  -342.707913   205.259551   492.981811   190.735919  -335.608605  -460.199638
0.097200   -31.274789   438.767686   378.295213  -143.709216  -495.071879  -249.843626
0.098400   302.809904   495.699022    82.096461  -441.184515  -429.944597   119.698391
0.099600   530.005732   283.290665  -314.939848  -527.049155   -87.380194   467.177794
0.100800   443.178720  -135.427335  -543.567629  -276.163494   334.687014   523.628012
0.102000    64.727323  -463.617247  -415.687723   142.333538   516.079707   251.853781
0.103200  -313.347099  -486.153862   -66.659911   423.083886   391.321913  -105.954011
0.104400  -466.297366  -260.879760   253.885064   462.645590   112.792139  -373.914417
0.105600  -407.966118    49.823723   453.303545   309.508421  -214.742938  -486.229097
0.106800  -164.310961   368.228683   455.468008   -23.127265  -481.152700  -343.559597
0.108000   226.543083   520.345900   167.877954  -392.625190  -465.502984    42.153876
