##TITLE=1D-13C-1-5-5-328-110-"no"-"yes"
##JCAMP-DX=5.01 $$ Magritek Spinsolve SPA1903 2.0.4.4423
##DATA TYPE=NMR FID
##DATA CLASS=NTUPLES
##ORIGIN=SPA1903 at Magritek
##OWNER=Copyright (C) 2025 by Magritek
##LONGDATE=2025/02/12 14:31:23.003
##.OBSERVE FREQUENCY=15.4861775226891
##.OBSERVE NUCLEUS=^13C
##.DELAY=( 20,  5000)
##.ACQUISITION MODE=SIMULTANEOUS
##.FIELD= 1.5
##.AVERAGES= 1
##.DIGITISER RES=16
##.SHIFT REFERENCE=(INTERNAL, Water, 4096, 0)
##$REFERENCE_POINT= 796.520    $$ Referencing label
$$      Distance of the zero axis position (in Hz) from the last data
$$      point (right edge); positive values -> right edge is below 0 Hz
##SPECTROMETER/DATA SYSTEM=Magritek
##SAMPLE DESCRIPTION=solvent=Water
$$ Bruker specific parameters
$$ --------------------------
##$AUNMP=   <proc_1d_nosref>
##$INSTRUM= <Magritek>
##$SI=      8192
##$TD=      8192
##$TDeff=   8192
##$SW=      322.868600
##$BF1=     15.4861775226891
##$SF=      15.4844740431616
##$LB=      0
##$PHC0=    217.5
##$PHC1=    0.0
##$REVERSE= yes
$$ End of Bruker specific parameters
$$ ---------------------------------
##NTUPLES=NMR FID
##VAR_NAME=        TIME,            FID/REAL,            FID/IMAG, PAGE NUMBER
##SYMBOL=             X,                   R,                   I,           N
##VAR_TYPE= INDEPENDENT,           DEPENDENT,           DEPENDENT,        PAGE
##VAR_FORM=        AFFN,                AFFN,                AFFN,        AFFN
##VAR_DIM=         8192,                8192,                8192,           2
##UNITS=        SECONDS,     ARBITRARY UNITS,     ARBITRARY UNITS,            
##FIRST=              0,                   0,                   0,           1
##LAST=    1.638199e+00,    0.10243911228212,  -0.210637939427071,           2
##MIN=                0,    -428.36913470431,   -418.347055996311,           1
##MAX=     1.638199e+00,     412.37701007863,     444.59266978796,           2
##FACTOR=             1,                   1,                   1,           1
##PAGE=N=1
##DATA TABLE=(X++(R..R)), XYDATA
0.000000     0.000000   184.126799  -318.209882  -415.439994    10.475824   409.339199
0.001200   302.808787  -171.069862  -428.369135  -160.529163   299.749994   383.362616
0.002400     0.853594  -372.756708  -290.424899   137.024876   390.877525   173.849041
0.003600  -252.843248  -371.501524   -38.396561   339.860270   311.656267   -91.548721
0.004800  -389.822977  -216.055482   224.003060   393.035224    82.489930  -338.769434
0.006000  -350.049660    73.356326   408.931879   240.904118  -228.096887  -417.720818
0.007200   -89.671159   350.877257   356.347674   -79.936703  -415.031790  -238.815889
0.008400   233.368090   412.377010    80.679139  -343.200079  -341.637526    78.014434
0.009600   397.216011   226.775922  -214.964316  -387.848923   -89.325388   312.999264
0.010800   330.934540   -51.318872  -366.422620  -235.835952   178.202150   375.288580
0.012000   122.206137  -283.232529  -342.012774    14.726581   355.225359   270.215166
0.013200  -147.270532  -389.501032  -152.971147   274.937576   371.846760     8.939536
0.014400  -371.886586  -291.117486   148.309186   407.840263   165.942189  -286.442769
0.015600  -382.244658    -0.029832   380.812254   287.063675  -155.678897  -402.048815
0.016800  -150.356871   282.943887   364.789627     0.814303  -357.798426  -270.148566
0.018000   139.365448   370.707804   150.540842  -248.410061  -343.549733   -27.138846
0.019200   319.527679   279.587956   -99.166873  -357.230995  -185.717593   210.853800
0.020400   355.563652    68.955638  -308.227603  -311.725384    73.139687   375.463977
0.021600   220.229542  -210.156014  -381.878391   -82.909894   321.829773   333.568277
0.022800   -72.239195  -387.534961  -223.054250   217.141332   386.371165    74.293965
0.024000  -324.921929  -320.884885    78.490294   377.019623   210.586030  -210.544629
0.025200  -368.820276   -78.008270   300.566734   310.869989   -58.852175  -349.284606
0.026400  -217.576927   173.937124   352.926755   102.292862  -272.059319  -316.435544
0.027600    23.725381   333.583474   241.084332  -147.820760  -358.309385  -133.770442
0.028800   257.732721   340.144588     3.780256  -342.994066  -269.210458   140.609731
0.030000   378.640984   148.420022  -267.003371  -355.113675    -3.394076   354.379146
0.031200   271.741918  -148.680125  -381.771142  -141.832932   268.101205   344.029591
0.032400    -2.256203  -340.229677  -256.997738   137.673659   358.979870   138.130111
0.033600  -241.757113  -322.212087   -15.477279   305.383947   255.176874  -102.761320
0.034800  -335.495680  -163.946201   205.476628   327.477186    53.012248  -288.336369
0.036000  -284.195230    69.247212   342.960119   199.533502  -196.423875  -355.940095
0.037200   -76.367931   302.636586   309.869477   -67.407270  -362.606848  -210.724748
0.038400   206.066986   365.938700    68.718550  -310.993994  -303.048153    80.273538
0.039600   360.431547   196.057687  -205.539476  -346.592052   -60.670029   295.225692
0.040800   284.827196   -69.978675  -331.781628  -187.491420   177.344912   324.079039
0.042000    78.391620  -259.295418  -281.006468    35.190117   307.214123   209.259097
0.043200  -141.517092  -323.900288  -112.763179   237.076424   302.507672    -5.547951
0.044400  -310.886821  -240.957022   127.535400   344.009814   133.951755  -243.788355
0.045600  -324.922901    -2.581424   323.984640   252.099959  -133.098163  -354.189678
0.046800  -132.930906   253.978014   323.517247    -6.253883  -320.533933  -236.880524
0.048000   134.018349   339.475075   126.067299  -237.803118  -303.630426     1.383946
0.049200   300.590786   230.288628  -113.487439  -313.664326  -135.870807   204.008715
0.050400   296.861602    30.018237  -273.791714  -248.055880    77.402369   310.754899
0.051600   168.149521  -181.865192  -315.740047   -62.015588   275.327225   275.696899
0.052800   -65.305938  -330.952860  -190.846569   188.143114   335.281287    69.761013
0.054000  -288.239571  -286.001348    73.701661   339.162492   183.538194  -200.129357
0.055200  -330.281506   -54.141610   284.099853   267.784280   -75.298580  -318.922368
0.056400  -172.432846   180.872633   308.868999    60.670419  -255.268268  -257.751106
0.057600    46.702763   291.566160   185.404385  -146.190489  -300.530319   -94.327765
0.058800   226.839473   276.229282   -11.328592  -286.167516  -215.805732   120.014653
0.060000   316.868154   126.518068  -226.722205  -302.203725     0.311535   307.411179
0.061200   234.908933  -127.078418  -333.112271  -128.209263   236.168285   307.016770
0.062400    -3.008859  -308.128247  -228.233718   131.951306   326.102929   119.765498
0.063600  -230.951057  -294.243902     2.014066   289.694829   220.894509  -117.615707
0.064800  -307.941207  -122.021253   203.021385   279.487090    16.581009  -266.756064
0.066000  -225.497496    88.555046   292.452827   146.117000  -178.849301  -288.621409
0.067200   -46.612621   255.563533   249.937023   -63.896386  -303.516025  -169.403776
0.068400   173.396912   310.166210    61.674026  -267.173973  -267.135660    61.497979
0.069600   316.004268   177.089517  -180.300750  -314.486155   -56.973047   271.066561
0.070800   259.800170   -67.389346  -305.215612  -164.938127   175.228509   295.535410
0.072000    54.184586  -245.900341  -243.903157    56.302470   281.213455   166.162689
0.073200  -147.128625  -282.112214   -76.530919   218.637380   249.989102   -20.525412
0.074400  -270.498554  -191.642240   121.637964   290.680203   105.179594  -211.541216
0.075600  -271.605362     1.126719   280.779311   217.560746  -120.663533  -309.251228
0.076800  -115.306599   221.908390   284.560968    -6.559874  -288.697223  -212.757345
0.078000   126.166431   308.090807   105.960338  -223.520266  -275.471724    10.443142
0.079200   274.850198   199.369266  -119.429038  -289.933461  -106.116366   202.739785
0.080400   260.001751     2.225670  -250.141173  -202.172966    88.410577   274.806199
0.081600   127.026999  -174.826631  -263.986043   -32.966488   238.075828   221.595473
0.082800   -65.436510  -276.539096  -151.547759   160.688557   279.147359    55.261306
0.084000  -243.271148  -242.433972    59.799967   289.959903   163.226943  -167.199073
0.085200  -294.687933   -55.323599   252.484291   244.529890   -64.245393  -293.164461
0.086400  -159.019471   167.668248   281.931685    49.837721  -240.613792  -230.783938
0.087600    59.356897   272.442001   153.756846  -146.369695  -265.255731   -63.315342
0.088800   213.152228   229.178411   -30.092033  -254.147277  -172.420381   118.168593
0.090000   266.370891    94.264615  -196.860559  -250.386997     4.987277   256.183935
0.091200   199.386197  -105.377599  -286.050470  -111.767996   203.886600   268.119833
0.092400    -0.379045  -273.076979  -206.009736   114.532144   292.174231   107.534943
0.093600  -208.639124  -262.654062    10.003362   265.602055   191.015456  -116.604266
0.094800  -275.094652   -98.425499   193.229868   246.365999     1.221561  -242.423193
0.096000  -189.168811    89.578163   255.724514   113.702148  -163.554152  -243.251358
0.097200   -30.224856   221.465695   204.524867   -62.927022  -254.046852  -139.055931
0.098400   148.335873   259.002543    51.228892  -222.651667  -226.532235    50.094967
0.099600   267.694463   154.904009  -152.293849  -273.015763   -54.324137   235.442108
0.100800   233.623082   -56.761296  -276.514794  -153.336202   159.642083   270.548678
0.102000    46.525957  -229.538153  -221.712439    57.813994   260.302215   142.274596
0.103200  -146.289040  -251.206661   -51.993826   208.148155   211.031500   -40.183943
0.104400  -240.137164  -148.333092   119.632424   244.917692    75.461927  -185.057483
0.105600  -219.875230    12.473069   234.051775   172.644758  -101.637543  -252.953551
0.106800   -98.628800   182.097890   244.145031     2.230931  -245.902770  -189.912410
0.108000   101.153119   267.483728    99.408316  -196.438567  -249.043108     6.779318
