##TITLE=1D-13C-1-2-5-328-110-"no"-"yes"
##JCAMP-DX=5.01 $$ Magritek Spinsolve SPA1903 2.0.4.4423
##DATA TYPE=NMR FID
##DATA CLASS=NTUPLES
##ORIGIN=SPA1903 at Magritek
##OWNER=Copyright (C) 2025 by Magritek
##LONGDATE=2025/03/17 12:00:18.512
##.OBSERVE FREQUENCY=15.4860999900848
##.OBSERVE NUCLEUS=^13C
##.DELAY=( 20,  2000)
##.ACQUISITION MODE=SIMULTANEOUS
##.FIELD= 1.5
##.AVERAGES= 1
##.DIGITISER RES=16
##.SHIFT REFERENCE=(INTERNAL, Water, 4096, 0)
##$REFERENCE_POINT= 796.529    $$ Referencing label
$$      Distance of the zero axis position (in Hz) from the last data
$$      point (right edge); positive values -> right edge is below 0 Hz
##SPECTROMETER/DATA SYSTEM=Magritek
##SAMPLE DESCRIPTION=solvent=Water
$$ Bruker specific parameters
$$ --------------------------
##$AUNMP=   <proc_1d_nosref>
##$INSTRUM= <Magritek>
##$SI=      8192
##$TD=      8192
##$TDeff=   8192
##$SW=      322.870200
##$BF1=     15.4860999900848
##$SF=      15.4843965190859
##$LB=      0
##$PHC0=    216.6
##$PHC1=    0.0
##$REVERSE= yes
$$ End of Bruker specific parameters
$$ ---------------------------------
##NTUPLES=NMR FID
##VAR_NAME=        TIME,            FID/REAL,            FID/IMAG, PAGE NUMBER
##SYMBOL=             X,                   R,                   I,           N
##VAR_TYPE= INDEPENDENT,           DEPENDENT,           DEPENDENT,        PAGE
##VAR_FORM=        AFFN,                AFFN,                AFFN,        AFFN
##VAR_DIM=         8192,                8192,                8192,           2
##UNITS=        SECONDS,     ARBITRARY UNITS,     ARBITRARY UNITS,            
##FIRST=              0,                   0,                   0,           1
##LAST=    1.638199e+00,  -0.620269103185511,   0.228693119776068,           2
##MIN=                0,   -2307.28347381677,   -2266.45853119488,           1
##MAX=     1.638199e+00,    2240.27152857708,    2403.02178238723,           2
##FACTOR=             1,                   1,                   1,           1
##PAGE=N=1
##DATA TABLE=(X++(R..R)), XYDATA
0.000000     0.000000   971.023610 -1749.607604 -2244.535639    93.617336  2232.458721
0.001200  1602.174318  -989.630790 -2307.283474  -781.513655  1648.188673  2009.049296
0.002400   -65.333863 -2004.427047 -1496.331420   791.632845  2094.587129   876.955083
0.003600 -1374.231015 -1961.548437  -185.682817  1813.000730  1639.320678  -523.496428
0.004800 -2079.285172 -1127.411363  1231.320774  2124.669473   402.796595 -1856.424043
0.006000 -1855.135826   455.594403  2240.271529  1255.575293 -1310.350686 -2265.827737
0.007200  -395.234939  1979.681647  1893.056110  -550.410951 -2300.776920 -1179.259368
0.008400  1390.929084  2207.597689   291.514144 -1957.083539 -1761.593437   586.101346
0.009600  2165.560934  1076.409578 -1294.489663 -2036.105935  -305.657865  1750.922436
0.010800  1652.151475  -427.576564 -1957.244340 -1128.653044  1047.722547  1952.736914
0.012000   504.945431 -1557.394243 -1746.856097   179.027568  1915.741570  1341.397230
0.013200  -891.764562 -2075.630556  -719.854904  1561.549288  1952.442407   -75.890889
0.014400 -2046.962609 -1489.305613   941.525835  2229.040512   735.288407 -1694.289153
0.015600 -2005.300897   188.378939  2131.873346  1407.260576 -1052.004898 -2172.533129
0.016800  -593.923661  1672.876390  1841.907931  -247.018026 -1978.549646 -1266.632696
0.018000   950.386255  1962.309855   594.274550 -1447.984945 -1721.951455    67.589560
0.019200  1754.864127  1329.522038  -686.657824 -1886.252516  -816.811331  1256.295485
0.020400  1835.713905   181.211061 -1731.209982 -1555.765830   551.289422  2026.883401
0.021600  1011.863848 -1285.994751 -2016.231254  -234.655688  1873.290871  1663.257215
0.022800  -630.216658 -2153.110310  -990.066506  1398.987965  2036.547294   129.410481
0.024000 -1915.701496 -1567.562056   702.245342  2071.843255   874.579247 -1366.377452
0.025200 -1885.868103  -100.895666  1758.597408  1450.659067  -602.845991 -1885.828794
0.026400  -874.646258  1162.106936  1782.737634   259.010284 -1570.022556 -1501.293088
0.027600   378.265161  1807.010690  1063.609407  -979.917917 -1852.587408  -472.078037
0.028800  1515.130698  1682.492470  -232.238316 -1899.812799 -1240.982073   981.038285
0.030000  2015.117518   546.617446 -1628.847575 -1792.337339   286.773627  2020.126909
0.031200  1238.060565 -1093.965502 -2054.247578  -445.879147  1692.562846  1700.942573
0.032400  -386.500903 -1949.353315 -1097.777400  1076.568476  1883.495366   378.429123
0.033600 -1538.097263 -1543.838001   297.148886  1735.520408  1073.657129  -860.366432
0.034800 -1739.563467  -526.710072  1310.387676  1579.532461   -47.917878 -1638.720549
0.036000 -1260.877821   662.777457  1811.865606   756.667503 -1266.725875 -1773.991283
0.037200   -81.063294  1751.027314  1424.433550  -686.500632 -1978.664762  -802.750858
0.038400  1392.647082  1853.851956    -4.544105 -1856.633586 -1383.705049   806.679245
0.039600  1962.925258   675.749807 -1426.801049 -1725.298537    92.796921  1752.289354
0.040800  1237.482344  -761.862492 -1787.542475  -636.796643  1254.002472  1588.470062
0.042000    12.251015 -1547.399491 -1233.078302   551.324334  1671.229512   775.990606
0.043200 -1062.895201 -1625.988801  -225.043395  1465.504355  1389.014044  -394.818223
0.044400 -1731.414024  -963.395948  1017.614942  1779.809391   336.441823 -1546.835287
0.045600 -1528.866805   401.520550  1851.909592  1007.378873 -1102.428034 -1850.340395
0.046800  -282.158132  1630.856391  1499.955972  -497.232280 -1856.718736  -899.025595
0.048000  1148.434185  1746.134512   192.929343 -1560.518044 -1372.113401   474.858235
0.049200  1697.063324   833.678295 -1000.635386 -1586.005766  -265.132071  1352.527490
0.050400  1333.023847  -278.211004 -1552.038591  -957.483365   789.179809  1598.770682
0.051600   486.894895 -1243.355092 -1492.105676    94.769310  1606.367663  1160.733006
0.052800  -738.527494 -1764.240593  -606.299103  1337.540155  1643.575381  -108.588436
0.054000 -1744.939413 -1208.862801   850.173463  1846.984685   525.380853 -1436.815841
0.055200 -1584.901462   225.162787  1729.348293  1078.636327  -878.876722 -1708.914807
0.056400  -439.297985  1327.331453  1438.048826  -185.492284 -1545.545406 -1022.283195
0.057600   708.527060  1560.567365   538.937460 -1120.050307 -1427.376885   -21.961068
0.058800  1417.555836  1159.631502  -514.550653 -1593.635416  -738.654318  1039.446282
0.060000  1575.833262   178.003558 -1484.244876 -1330.996970   489.534953  1731.782420
0.061200   829.244035 -1119.476128 -1687.991680  -152.758886  1583.604537  1349.764186
0.062400  -568.744625 -1775.843457  -763.636058  1185.318060  1637.433021    69.599022
0.063600 -1559.749730 -1243.348009   583.257767  1656.998611   687.928786 -1090.567188
0.064800 -1502.822904   -90.250017  1390.339984  1173.839758  -443.949375 -1507.310849
0.066000  -752.906386   895.584714  1466.779704   269.311175 -1252.822725 -1270.228335
0.067200   252.168126  1503.180502   935.337543  -793.503181 -1587.037865  -433.359973
0.068400  1289.088747  1441.648264  -206.002542 -1631.357709 -1038.046822   865.345487
0.069600  1707.512189   412.341113 -1398.004699 -1461.568031   306.080053  1679.814786
0.070800   951.508683  -948.526442 -1639.454578  -298.033325  1379.307579  1325.307155
0.072000  -337.415778 -1538.899110  -848.486956   841.687349  1472.298594   320.843210
0.073200 -1183.359344 -1245.080726   173.404596  1368.973209   927.065181  -638.068309
0.074400 -1445.573867  -508.717719  1053.797737  1363.870946     7.519047 -1384.889589
0.075600 -1102.106521   556.545925  1563.533222   647.513918 -1100.220925 -1498.912929
0.076800   -25.571166  1502.407508  1168.432964  -628.022697 -1646.376739  -610.096871
0.078000  1189.487591  1494.637754   -63.301208 -1520.112260 -1075.664992   680.928982
0.079200  1574.197224   517.795482 -1145.206161 -1374.991733    71.650653  1391.109186
0.080400   993.434009  -585.155657 -1432.398285  -547.651044   977.284335  1308.953934
0.081600    70.316020 -1244.878142 -1058.931923   406.817320  1386.740977   697.411989
0.082800  -847.495967 -1386.434167  -240.158426  1226.296518  1213.608629  -304.076434
0.084000 -1480.410848  -833.457970   869.883427  1521.566278   284.445037 -1331.455440
0.085200 -1297.914112   362.959666  1573.600758   817.556070  -960.137985 -1530.551078
0.086400  -190.937684  1364.784300  1211.107683  -428.595158 -1506.025295  -715.780302
0.087600   925.519903  1393.527084   162.791286 -1224.538081 -1095.878362   338.658067
0.088800  1332.216629   723.440993  -738.169783 -1306.433545  -308.822025  1054.679640
0.090000  1162.446209  -133.223115 -1286.666090  -898.746773   599.073005  1403.276464
0.091200   488.487667 -1053.619731 -1325.741173    46.573110  1399.814857  1027.849693
0.092400  -642.684568 -1529.192924  -503.069469  1159.711144  1372.055702  -128.186624
0.093600 -1469.856743  -973.357973   729.378873  1498.898021   405.393781 -1168.016341
0.094800 -1272.990770   178.148347  1376.220912   872.814409  -674.423273 -1361.302602
0.096000  -396.490452  1019.435726  1177.947903   -79.334752 -1217.154400  -886.681416
0.097200   501.366423  1287.474022   521.165824  -880.444854 -1226.708611   -92.096360
0.098400  1169.076010  1024.775970  -388.227370 -1351.430665  -671.283840   862.735819
0.099600  1354.888767   166.729071 -1254.182881 -1130.273688   407.481803  1456.064610
0.100800   696.354006  -945.176945 -1403.312313  -103.656278  1318.023172  1092.883567
0.102000  -489.576177 -1444.797936  -600.421612   967.648736  1309.186472    42.388142
0.103200 -1241.554895  -979.896708   458.100608  1301.469407   551.189928  -830.678270
0.104400 -1187.564635  -121.860935  1075.672411   969.586637  -288.447511 -1205.177984
0.105600  -673.983938   676.481062  1226.090109   296.284009 -1016.241107 -1111.502855
0.106800   164.788872  1272.452136   827.144988  -662.660710 -1361.228356  -366.787866
0.108000  1107.992427  1214.050659  -201.833858 -1377.343908  -831.875380   758.495682
