##TITLE=1D-13C-1-2-5-328-110-"no"-"yes"
##JCAMP-DX=5.01 $$ Magritek Spinsolve SPA1903 2.0.4.4423
##DATA TYPE=NMR FID
##DATA CLASS=NTUPLES
##ORIGIN=SPA1903 at Magritek
##OWNER=Copyright (C) 2025 by Magritek
##LONGDATE=2025/03/17 11:57:06.237
##.OBSERVE FREQUENCY=15.4860999900848
##.OBSERVE NUCLEUS=^13C
##.DELAY=( 20,  2000)
##.ACQUISITION MODE=SIMULTANEOUS
##.FIELD= 1.5
##.AVERAGES= 1
##.DIGITISER RES=16
##.SHIFT REFERENCE=(INTERNAL, Water, 4096, 0)
##$REFERENCE_POINT= 796.529    $$ Referencing label
$$      Distance of the zero axis position (in Hz) from the last data
$$      point (right edge); positive values -> right edge is below 0 Hz
##SPECTROMETER/DATA SYSTEM=Magritek
##SAMPLE DESCRIPTION=solvent=Water
$$ Bruker specific parameters
$$ --------------------------
##$AUNMP=   <proc_1d_nosref>
##$INSTRUM= <Magritek>
##$SI=      8192
##$TD=      8192
##$TDeff=   8192
##$SW=      322.870200
##$BF1=     15.4860999900848
##$SF=      15.4843965190859
##$LB=      0
##$PHC0=    217.5
##$PHC1=    0.0
##$REVERSE= yes
$$ End of Bruker specific parameters
$$ ---------------------------------
##NTUPLES=NMR FID
##VAR_NAME=        TIME,            FID/REAL,            FID/IMAG, PAGE NUMBER
##SYMBOL=             X,                   R,                   I,           N
##VAR_TYPE= INDEPENDENT,           DEPENDENT,           DEPENDENT,        PAGE
##VAR_FORM=        AFFN,                AFFN,                AFFN,        AFFN
##VAR_DIM=         8192,                8192,                8192,           2
##UNITS=        SECONDS,     ARBITRARY UNITS,     ARBITRARY UNITS,            
##FIRST=              0,                   0,                   0,           1
##LAST=    1.638199e+00,  0.0396089064546729,   0.108975863502967,           2
##MIN=                0,   -11851.2477206483,   -11214.6577283996,           1
##MAX=     1.638199e+00,    11423.2697613194,    12303.2504979018,           2
##FACTOR=             1,                   1,                   1,           1
##PAGE=N=1
##DATA TABLE=(X++(R..R)), XYDATA
0.000000     0.000000  4909.804529 -9067.693013 -11456.770073   556.474434 11423.269761
0.001200  8179.119945 -5044.505946 -11851.247721 -4010.963798  8519.508142 10325.956474
0.002400  -387.996130 -10281.284228 -7614.041448  4079.504184 10709.929062  4423.723549
0.003600 -7145.002171 -10020.598252  -774.547389  9372.779741  8204.217428 -2881.409464
0.004800 -10590.086995 -5490.570416  6456.487974 10680.804064  1745.509053 -9509.535824
0.006000 -9106.667597  2606.650705 11203.201346  5971.073603 -6732.669753 -11164.022217
0.007200 -1711.507548  9925.655139  9202.861471 -2988.036912 -11392.923701 -5582.350309
0.008400  7060.375151 10797.290964  1184.375679 -9707.415377 -8507.150806  3080.774216
0.009600 10678.534568  5077.272884 -6580.134246 -9947.080136 -1182.873488  8769.396346
0.010800  7930.659690 -2388.792384 -9659.966791 -5233.707168  5457.903928  9498.824284
0.012000  2025.298289 -7855.655214 -8205.783060  1332.587422  9306.378318  6076.845493
0.013200 -4646.483784 -9897.853046 -3012.446258  7775.917369  9070.828199  -907.949625
0.014400 -9854.386210 -6667.386227  4838.502816 10491.943757  3086.420111 -8298.031325
0.015600 -9321.172648  1361.695156 10240.868507  6250.673370 -5390.777497 -10190.316325
0.016800 -2387.990446  8223.947614  8533.579535 -1647.485056 -9545.684888 -5553.357620
0.018000  5011.836735  9169.544906  2249.508305 -7149.208215 -7828.024479   864.069351
0.019200  8436.025930  5792.763120 -3809.956186 -8764.054050 -3176.776184  6241.985692
0.020400  8217.920651   237.542487 -8225.823657 -6758.645652  3133.397835  9361.838011
0.021600  4052.893236 -6390.602529 -9028.456711  -459.191767  8806.974980  7194.722893
0.022800 -3447.660595 -9860.781599 -3950.794982  6897.726232  9088.596651   -41.545725
0.024000 -9003.697775 -6704.297354  3814.604172  9456.242044  3398.466218 -6701.141014
0.025200 -8393.073933   192.817505  8340.271644  6156.333628 -3408.136126 -8605.651369
0.026400 -3345.874152  5804.756598  7846.393919   450.486552 -7431.347666 -6307.943227
0.027600  2449.450049  8217.183446  4039.309487 -5012.249573 -8040.901272 -1355.729013
0.028800  7106.544245  7034.815197 -1755.482980 -8567.091335 -4828.191174  4966.196121
0.030000  8691.836164  1691.485967 -7511.559450 -7507.132209  1895.645334  9056.157642
0.031200  4884.157688 -5448.062951 -8893.076544 -1219.239089  7839.002809  7073.698086
0.032400 -2384.755370 -8764.542238 -4242.184001  5434.948394  8183.597708   826.385587
0.033600 -7258.568720 -6281.826736  2159.578110  7733.943709  3955.330930 -4468.042911
0.034800 -7414.999511 -1420.309191  6202.995415  6289.755105 -1128.666264 -7163.954863
0.036000 -4649.307265  3516.077635  7596.078299  2449.771569 -5878.510923 -7113.144215
0.037200   477.403417  7627.955048  5404.679557 -3607.488513 -8269.573789 -2655.862677
0.038400  6392.402980  7505.855101  -819.805840 -8126.822803 -5222.419280  4181.658872
0.039600  8256.191394  2026.788196 -6589.873850 -6896.439601  1272.194621  7680.365273
0.040800  4528.254024 -4064.806973 -7461.949545 -1709.957964  5910.658823  6186.218791
0.042000  -940.838855 -6748.501581 -4376.103839  3191.361715  6856.859909  2253.479710
0.043200 -5053.596036 -6233.807904   112.617062  6312.694895  4918.980714 -2460.163690
0.044400 -6980.487376 -3027.572762  4782.576469  6833.523674   391.941608 -6631.282414
0.045600 -5481.137469  2478.030960  7460.194817  3244.369463 -5107.356998 -7180.401423
0.046800  -225.056131  7047.458955  5447.072466 -2934.216934 -7544.754204 -2764.710668
0.048000  5352.940350  6767.606815  -202.417372 -6821.199189 -4877.277572  3004.656407
0.049200  6940.171240  2332.095837 -4879.938400 -6004.275458    58.311485  5920.334408
0.050400  4591.496742 -2233.830536 -6263.091260 -2716.166821  3994.036753  5884.438628
0.051600   782.638585 -5322.148663 -5132.674116  1335.934021  6366.152475  3651.936363
0.052800 -3675.978905 -6605.799637 -1383.437498  5693.050322  5829.358453 -1345.106462
0.054000 -7003.247521 -3928.650564  4162.809255  7066.741110  1073.805509 -6240.865012
0.055200 -5684.580152  1940.570205  7043.035370  3333.463121 -4416.928244 -6542.949491
0.056400  -583.063225  5910.301290  4998.919020 -1927.405579 -6277.114687 -2948.290870
0.057600  3776.349511  5797.665464   891.656793 -4982.258587 -4845.439195  1086.776754
0.058800  5692.711888  3455.777757 -2946.426467 -5826.921038 -1707.096260  4550.104493
0.060000  5414.484764  -360.249292 -5878.689224 -4221.764320  2765.912722  6428.973922
0.061200  2120.910321 -4880.687663 -5900.952749   410.109786  6316.643569  4386.193774
0.062400 -3113.069068 -6728.813174 -1878.573065  5263.470265  5752.651987  -855.815423
0.063600 -6296.396191 -3911.486552  3276.836158  6317.599582  1496.409979 -5034.611313
0.064800 -5185.192528   939.603685  5688.367681  3467.538383 -2812.171102 -5596.181829
0.066000 -1627.789059  4232.632944  4896.906668  -319.701594 -5051.317889 -3718.358048
0.067200  2011.561006  5375.325323  2331.507429 -3634.391754 -5305.590367  -461.477804
0.068400  5083.912528  4450.681727 -1718.243454 -5889.817503 -2823.972948  3865.814919
0.069600  5873.325342   500.114179 -5611.482089 -4698.491502  2159.230023  6290.948484
0.070800  2498.869055 -4376.176068 -5709.267675    85.768456  5658.731994  4096.901689
0.072000 -2476.055042 -5804.009327 -1921.923180  4137.978691  4945.964240  -213.299179
0.073200 -4897.584402 -3579.131160  1928.284918  4995.969719  2076.241279 -3264.569838
0.074400 -4661.890112  -488.876229  4254.800203  3914.897991 -1123.038465 -4894.229067
0.075600 -2816.340290  2793.818978  5146.693246  1151.284188 -4420.290478 -4583.199493
0.076800   995.553571  5423.634166  3154.564594 -3095.055256 -5581.581709 -1067.999932
0.078000  4874.110060  4690.011557 -1406.488846 -5668.630553 -2800.525890  3465.854709
0.079200  5334.511320   604.754297 -4805.742061 -4207.328129  1577.124224  5251.757047
0.080400  2374.157129 -3258.001571 -4736.468574  -520.874912  4175.523567  3793.239855
0.081600 -1121.780117 -4613.755329 -2494.773078  2571.296118  4466.158631  1032.646199
0.082800 -3589.507488 -3958.136507   410.310503  4396.205889  3118.003320 -2056.010965
0.084000 -4823.248289 -1688.816346  3597.856492  4552.958632  -121.331054 -4795.835812
0.085200 -3591.303588  2193.061848  5343.126708  1772.901826 -4076.303686 -4802.531241
0.086400   499.384701  5156.473121  3330.054349 -2632.102970 -5232.103273 -1284.355754
0.087600  4161.455459  4316.956666  -837.331772 -4769.804720 -2754.240406  2481.199564
0.088800  4515.112339  1097.699169 -3476.764994 -3789.262324   378.935540  3993.397739
0.090000  2818.145178 -1673.162750 -4145.169769 -1701.144322  2779.873313  4019.037526
0.091200   449.006131 -3803.987212 -3541.895751  1149.912531  4586.421215  2380.322595
0.092400 -2879.396637 -4654.880614  -635.866006  4281.117479  3929.511116 -1417.929692
0.093600 -5072.119641 -2313.519155  3380.305704  4756.442744   162.452576 -4529.399299
0.094800 -3524.297781  1795.780165  4807.922752  1823.998394 -3340.617738 -4224.255538
0.096000    87.238583  4093.786724  3012.420451 -1583.950480 -4122.393170 -1710.253365
0.097200  2685.932843  3801.603544   337.952027 -3468.430985 -3067.810489   955.906875
0.098400  3807.675828  2154.027328 -2111.677295 -3939.165930  -983.776889  3281.508169
0.099600  3592.539657  -547.663186 -4093.522091 -2644.028429  2121.712146  4374.107746
0.100800  1196.812328 -3593.254483 -3947.934360   705.236620  4510.428155  2630.012633
0.102000 -2554.854151 -4511.925026  -814.643749  3864.546793  3665.736071 -1106.716939
0.103200 -4407.749067 -2151.632332  2688.745153  4045.629497   415.354246 -3548.275256
0.104400 -3063.369490  1060.850611  3742.738806  1871.979575 -2136.215548 -3490.668516
0.105600  -684.558736  2854.008554  2965.868662  -411.780043 -3294.045017 -2293.544208
0.106800  1473.429539  3581.235452  1388.360394 -2621.483821 -3533.459767   -51.180143
0.108000  3615.838901  2857.172076 -1518.299802 -4116.927659 -1587.425024  3048.239901
