##TITLE=1D-13C-1-5-5-328-110-"no"-"yes"
##JCAMP-DX=5.01 $$ Magritek Spinsolve SPA1903 2.0.4.4423
##DATA TYPE=NMR FID
##DATA CLASS=NTUPLES
##ORIGIN=SPA1903 at Magritek
##OWNER=Copyright (C) 2025 by Magritek
##LONGDATE=2025/02/12 14:31:15.070
##.OBSERVE FREQUENCY=15.4861775226891
##.OBSERVE NUCLEUS=^13C
##.DELAY=( 20,  5000)
##.ACQUISITION MODE=SIMULTANEOUS
##.FIELD= 1.5
##.AVERAGES= 1
##.DIGITISER RES=16
##.SHIFT REFERENCE=(INTERNAL, Water, 4096, 0)
##$REFERENCE_POINT= 796.520    $$ Referencing label
$$      Distance of the zero axis position (in Hz) from the last data
$$      point (right edge); positive values -> right edge is below 0 Hz
##SPECTROMETER/DATA SYSTEM=Magritek
##SAMPLE DESCRIPTION=solvent=Water
$$ Bruker specific parameters
$$ --------------------------
##$AUNMP=   <proc_1d_nosref>
##$INSTRUM= <Magritek>
##$SI=      8192
##$TD=      8192
##$TDeff=   8192
##$SW=      322.868600
##$BF1=     15.4861775226891
##$SF=      15.4844740431616
##$LB=      0
##$PHC0=    217.5
##$PHC1=    0.0
##$REVERSE= yes
$$ End of Bruker specific parameters
$$ ---------------------------------
##NTUPLES=NMR FID
##VAR_NAME=        TIME,            FID/REAL,            FID/IMAG, PAGE NUMBER
##SYMBOL=             X,                   R,                   I,           N
##VAR_TYPE= INDEPENDENT,           DEPENDENT,           DEPENDENT,        PAGE
##VAR_FORM=        AFFN,                AFFN,                AFFN,        AFFN
##VAR_DIM=         8192,                8192,                8192,           2
##UNITS=        SECONDS,     ARBITRARY UNITS,     ARBITRARY UNITS,            
##FIRST=              0,                   0,                   0,           1
##LAST=    1.638199e+00, -0.0117935658055101,  -0.225676956803405,           2
##MIN=                0,   -477.748096779195,   -465.838414271856,           1
##MAX=     1.638199e+00,    457.845405159569,    493.672786008293,           2
##FACTOR=             1,                   1,                   1,           1
##PAGE=N=1
##DATA TABLE=(X++(R..R)), XYDATA
0.000000     0.000000   203.618468  -354.340587  -461.955852    10.417068   454.414589
0.001200   337.291528  -192.263458  -477.748097  -176.162254   332.307929   423.470848
0.002400    -1.029143  -415.557037  -322.741481   151.953309   437.287161   194.769989
0.003600  -282.519613  -414.598743   -46.580076   377.019588   346.320896  -103.220223
0.004800  -431.256876  -238.669355   248.248743   437.947467    90.034269  -378.731285
0.006000  -383.526839    83.467133   452.363689   267.705437  -252.401694  -461.036257
0.007200  -100.514328   387.718602   397.096571   -91.778891  -464.668769  -262.336533
0.008400   263.786117   457.845405    91.108824  -382.708749  -378.454266    87.791499
0.009600   443.292519   251.180250  -243.460027  -432.088986   -95.042453   351.774202
0.010800   366.442928   -59.870748  -408.082064  -261.523757   198.087385   418.595330
0.012000   132.353734  -315.243742  -380.217754    13.854549   392.635372   293.896554
0.013200  -168.224130  -433.633713  -168.264874   308.766499   413.178935     5.431300
0.014400  -412.194632  -322.663153   166.709587   453.212880   178.433344  -320.506212
0.015600  -424.476532    -0.665166   421.269283   315.032106  -178.735665  -447.596553
0.016800  -162.260091   315.105232   400.796780    -6.868257  -397.353956  -296.702900
0.018000   157.529832   410.329791   165.779900  -277.016764  -381.445902   -24.204804
0.019200   358.485540   310.140463  -110.474695  -395.613564  -202.248608   239.143829
0.020400   393.494517    70.030592  -343.274287  -341.209193    83.700020   414.792457
0.021600   238.160278  -236.650149  -423.595829   -87.851152   358.970312   367.166186
0.022800   -82.179897  -431.317430  -243.673814   248.147966   429.130298    79.724328
0.024000  -364.476818  -356.571116    89.457907   418.892110   231.836097  -234.744117
0.025200  -409.507200   -83.632608   338.799859   341.205481   -70.325811  -389.876466
0.026400  -236.359921   200.424898   391.831952   108.668348  -304.832640  -349.800877
0.027600    31.284502   372.568188   261.057197  -171.659569  -400.310019  -143.064940
0.028800   291.959790   374.959685    -4.296367  -386.678521  -291.638398   161.052949
0.030000   416.821045   160.889859  -296.514532  -390.642522    -1.504476   393.526176
0.031200   295.880533  -169.020843  -421.363671  -154.624089   300.717899   377.779418
0.032400    -7.219015  -378.630925  -281.348360   156.432370   394.966319   148.547951
0.033600  -274.425845  -357.268999   -11.467637   340.742522   277.484183  -118.530102
0.034800  -374.526701  -178.790904   233.885041   360.773458    50.985869  -322.808698
0.036000  -308.730194    82.483222   381.466150   216.425318  -220.449429  -389.282708
0.037200   -78.422575   333.622064   337.691072   -79.380627  -402.753203  -229.315341
0.038400   232.457623   405.111875    72.167511  -350.295183  -334.612413    95.202496
0.039600   398.975516   209.980110  -233.734000  -384.869588   -60.770344   327.947878
0.040800   310.601535   -82.481398  -369.597487  -203.482107   204.119480   356.226907
0.042000    80.997212  -287.894279  -308.411670    43.095262   342.388953   226.555816
0.043200  -164.323732  -357.802606  -119.184575   270.049719   331.365974   -12.401644
0.044400  -345.933113  -261.133786   149.746618   380.224423   143.254431  -272.261204
0.045600  -354.643885     4.078051   359.382060   271.808694  -156.409942  -391.593328
0.046800  -141.024002   283.724437   354.870371   -15.248841  -358.486513  -256.855466
0.048000   156.848449   374.804219   131.552589  -270.282917  -335.870816     9.289991
0.049200   334.907290   248.804801  -133.124580  -347.775139  -142.684652   232.733026
0.050400   324.830346    25.063204  -304.397163  -267.673754    94.600289   342.873378
0.051600   179.023731  -207.434923  -347.861415   -60.968877   304.636562   300.533256
0.052800   -77.666415  -368.017637  -203.164929   214.458041   371.108035    66.974942
0.054000  -323.318622  -312.316465    87.897080   376.865224   195.950189  -225.288021
0.055200  -363.881264   -51.570816   319.158028   294.013598   -89.732450  -356.126630
0.056400  -183.608163   207.233382   339.290652    60.148326  -284.801810  -279.520047
0.057600    62.388325   325.583684   198.245409  -166.933246  -329.877539   -94.821093
0.058800   255.611108   298.593883   -21.972341  -320.060104  -231.764321   142.013918
0.060000   348.084943   127.665568  -258.981605  -327.628159     7.121957   336.046252
0.061200   252.248983  -146.502888  -366.133834  -132.769794   267.157229   336.729632
0.062400   -13.242679  -345.788902  -248.440265   152.625285   357.657952   121.204031
0.063600  -261.588437  -321.815003    12.694457   326.020641   239.854446  -137.839770
0.064800  -339.187423  -123.948894   235.789992   308.451818    11.358674  -296.748033
0.066000  -244.017629   102.383795   327.750560   151.941032  -208.237756  -316.798143
0.067200   -42.058834   285.106390   269.885613   -75.687901  -336.416355  -180.514765
0.068400   199.884980   337.562124    60.190072  -298.529198  -289.389063    78.570741
0.069600   349.421361   186.529872  -207.040572  -346.391230   -51.932762   303.047983
0.070800   278.574501   -87.402521  -342.949509  -174.817590   202.320396   325.381074
0.072000    52.862699  -276.560011  -263.994303    70.634456   313.621382   175.845856
0.073200  -170.068417  -308.028401   -77.148024   248.264964   271.134362   -32.900365
0.074400  -299.939768  -203.976787   141.662039   318.536175   107.527113  -241.063637
0.075600  -298.362023    11.375094   314.010686   230.269330  -142.938256  -343.247465
0.076800  -116.352592   252.383634   309.750498   -16.612117  -324.624329  -230.271299
0.078000   149.137914   339.867566   107.332654  -253.799754  -296.300513    22.819807
0.079200   310.410363   215.846670  -138.679351  -317.989959  -108.285182   228.694334
0.080400   280.912208    -4.933208  -281.500990  -217.709037   108.322123   298.893063
0.081600   129.984293  -198.953111  -289.454252   -25.743395   266.686278   234.605547
0.082800   -83.270986  -306.802342  -157.217982   186.709891   306.034277    50.655183
0.084000  -274.033727  -261.368896    77.870399   321.329947   170.550744  -191.126321
0.085200  -321.298798   -50.698524   284.953501   265.286568   -81.056144  -322.238250
0.086400  -162.354640   194.820573   308.367264    42.779507  -270.325059  -248.744542
0.087600    74.052204   300.445988   158.278752  -174.770181  -290.859611   -56.054659
0.088800   240.453301   246.630260   -43.654207  -283.431466  -181.653004   140.401844
0.090000   293.222889    91.821019  -225.121604  -270.318916    12.933191   284.406511
0.091200   209.722662  -126.806780  -312.947501  -111.438318   232.959044   293.020053
0.092400   -11.610899  -301.296047  -216.156464   138.636760   322.626018   106.711958
0.093600  -238.885838  -285.931796    20.725798   299.525357   202.016374  -136.599484
0.094800  -301.092805  -100.316723   220.342796   267.175410   -13.013033  -271.438399
0.096000  -196.553130   110.059553   281.632932   115.038793  -187.291581  -264.445827
0.097200   -21.403951   251.367928   217.207770   -80.076325  -281.886494  -141.998544
0.098400   171.371897   280.090743    47.281113  -250.119097  -243.568884    67.603764
0.099600   298.780911   160.596115  -177.437577  -298.980813   -49.642644   261.480493
0.100800   250.708798   -74.934394  -307.002408  -158.248623   185.544565   294.480940
0.102000    39.658656  -259.915896  -237.829886    73.116100   289.488181   148.924267
0.103200  -171.181262  -276.205284   -43.881746   237.934221   225.178639   -55.582020
0.104400  -265.269572  -154.644052   141.678672   267.907404    70.280421  -209.659798
0.105600  -235.698983    24.208086   258.832965   179.095688  -124.273329  -278.876610
0.106800   -94.779002   208.619803   259.757634   -10.616789  -274.559493  -197.198751
0.108000   126.447687   292.541542    99.095390  -220.702649  -266.307498    19.994866
