##TITLE=1D-13C-1-2-5-328-110-"no"-"yes"
##JCAMP-DX=5.01 $$ Magritek Spinsolve SPA1903 2.0.4.4423
##DATA TYPE=NMR FID
##DATA CLASS=NTUPLES
##ORIGIN=SPA1903 at Magritek
##OWNER=Copyright (C) 2025 by Magritek
##LONGDATE=2025/03/17 11:58:28.479
##.OBSERVE FREQUENCY=15.4860999900848
##.OBSERVE NUCLEUS=^13C
##.DELAY=( 20,  2000)
##.ACQUISITION MODE=SIMULTANEOUS
##.FIELD= 1.5
##.AVERAGES= 1
##.DIGITISER RES=16
##.SHIFT REFERENCE=(INTERNAL, Water, 4096, 0)
##$REFERENCE_POINT= 796.529    $$ Referencing label
$$      Distance of the zero axis position (in Hz) from the last data
$$      point (right edge); positive values -> right edge is below 0 Hz
##SPECTROMETER/DATA SYSTEM=Magritek
##SAMPLE DESCRIPTION=solvent=Water
$$ Bruker specific parameters
$$ --------------------------
##$AUNMP=   <proc_1d_nosref>
##$INSTRUM= <Magritek>
##$SI=      8192
##$TD=      8192
##$TDeff=   8192
##$SW=      322.870200
##$BF1=     15.4860999900848
##$SF=      15.4843965190859
##$LB=      0
##$PHC0=    217.0
##$PHC1=    0.0
##$REVERSE= yes
$$ End of Bruker specific parameters
$$ ---------------------------------
##NTUPLES=NMR FID
##VAR_NAME=        TIME,            FID/REAL,            FID/IMAG, PAGE NUMBER
##SYMBOL=             X,                   R,                   I,           N
##VAR_TYPE= INDEPENDENT,           DEPENDENT,           DEPENDENT,        PAGE
##VAR_FORM=        AFFN,                AFFN,                AFFN,        AFFN
##VAR_DIM=         8192,                8192,                8192,           2
##UNITS=        SECONDS,     ARBITRARY UNITS,     ARBITRARY UNITS,            
##FIRST=              0,                   0,                   0,           1
##LAST=    1.638199e+00,   0.147709495071936, -0.0457269010811835,           2
##MIN=                0,    -5795.4098816847,   -5584.35324699733,           1
##MAX=     1.638199e+00,    5604.67738764727,    6027.63994884023,           2
##FACTOR=             1,                   1,                   1,           1
##PAGE=N=1
##DATA TABLE=(X++(R..R)), XYDATA
0.000000     0.000000  2416.262453 -4411.979350 -5612.391101   266.850657  5604.677388
0.001200  4000.154741 -2482.369412 -5795.409882 -1951.240100  4171.627826  5056.996789
0.002400  -182.943412 -5040.147959 -3737.255632  1995.326828  5247.837544  2171.390233
0.003600 -3490.590832 -4923.055263  -418.799802  4586.312070  4073.824263 -1373.641044
0.004800 -5226.491210 -2753.113914  3147.811524  5285.363748   929.028748 -4669.988260
0.006000 -4563.560788  1227.754343  5574.060015  3037.620321 -3313.477216 -5596.543428
0.007200  -908.203929  4940.174110  4640.873608 -1430.902239 -5694.090367 -2853.574699
0.008400  3497.556312  5437.542198   646.672008 -4858.372510 -4303.022594  1503.975820
0.009600  5355.470639  2599.618260 -3253.469527 -5018.550394  -661.478755  4379.557923
0.010800  4040.552715 -1137.186636 -4861.528272 -2705.721538  2677.848731  4804.401249
0.012000  1123.642506 -3910.303747 -4227.322413   566.229224  4711.818823  3182.155313
0.013200 -2273.902768 -5057.892096 -1644.698497  3896.869956  4700.189878  -342.111564
0.014400 -5029.889589 -3518.682648  2405.758667  5408.876010  1675.308588 -4188.178368
0.015600 -4833.479318   588.809828  5239.660156  3316.651987 -2673.173343 -5259.167228
0.016800 -1330.497645  4159.152512  4433.370016  -728.365212 -4870.695296 -2968.005956
0.018000  2456.019164  4751.377529  1298.240841 -3615.190647 -4117.393909   310.762344
0.019200  4320.851051  3111.957776 -1832.337899 -4564.257458 -1802.548680  3152.938405
0.020400  4352.884534   271.337582 -4242.815253 -3640.928605  1492.802514  4895.358106
0.021600  2266.912940 -3230.110576 -4801.457973  -396.245975  4574.329121  3880.442915
0.022800 -1678.116439 -5177.005893 -2213.034482  3505.877880  4826.165483   131.439469
0.024000 -4671.060533 -3635.421173  1866.165698  4975.575882  1925.832786 -3414.752095
0.025200 -4471.978481   -62.682458  4320.796856  3368.501098 -1629.505173 -4543.833826
0.026400 -1934.692759  2942.065398  4214.075784   418.136345 -3855.333168 -3464.686482
0.027600  1109.631058  4352.806726  2336.852071 -2519.616914 -4362.483968  -911.964077
0.028800  3722.524903  3877.295131  -764.900848 -4573.153658 -2760.238072  2524.544687
0.030000  4740.177190  1082.692656 -3967.097357 -4134.107963   870.310730  4838.996809
0.031200  2770.042276 -2774.809086 -4826.474555  -843.456934  4128.464415  3918.928900
0.032400 -1113.587055 -4682.285180 -2428.685061  2752.533022  4428.570870   657.071737
0.033600 -3789.329694 -3531.697927   944.501279  4159.546401  2337.802841 -2242.548223
0.034800 -4074.054278 -1007.056307  3244.202411  3582.386327  -382.487720 -3900.016826
0.036000 -2743.622844  1763.265016  4224.837706  1546.585309 -3120.086820 -4030.544009
0.037200    56.872907  4160.885320  3149.945982 -1823.402265 -4601.473291 -1648.170654
0.038400  3413.827795  4236.193211  -250.693824 -4422.267956 -3041.914612  2112.969071
0.039600  4578.966705  1336.215179 -3496.571839 -3920.736740   474.501406  4180.106323
0.040800  2695.018787 -2024.855935 -4160.948204 -1208.544085  3115.431102  3580.100452
0.042000  -257.009953 -3703.415042 -2653.352434  1551.828994  3863.555584  1529.889737
0.043200 -2660.933611 -3644.899164  -218.421368  3497.215416  2995.349137 -1170.170321
0.044400 -3984.310237 -1949.352016  2546.526105  3978.683833   486.169980 -3680.006810
0.045600 -3313.167222  1187.040910  4256.788055  2061.105766 -2739.864889 -4161.367766
0.046800  -369.968482  3895.892553  3276.018826 -1423.914693 -4293.460091 -1812.029375
0.048000  2853.916333  3927.311509   156.014956 -3736.730616 -2957.471140  1409.178874
0.049200  3931.246032  1626.437879 -2554.382809 -3551.160855  -279.591187  3258.204915
0.050400  2851.319208  -968.304335 -3588.431404 -1886.225696  2064.094762  3551.355350
0.051600   772.379657 -2984.337893 -3187.265942   514.673285  3690.993378  2377.253267
0.052800 -1931.133226 -3944.501079 -1072.181833  3204.753345  3558.514736  -549.286071
0.054000 -4036.013280 -2489.764036  2202.039175  4146.597174   891.978667 -3458.787538
0.055200 -3453.599449   833.466280  4016.441323  2180.589783 -2297.854859 -3845.480415
0.056400  -659.214665  3235.362148  3089.749493  -775.919190 -3595.845192 -2031.932780
0.057600  1913.768920  3483.795363   870.737884 -2751.112304 -3057.395822   298.688274
0.058800  3301.909798  2333.829127 -1483.832330 -3539.583784 -1326.897193  2548.976794
0.060000  3384.933013    59.978238 -3426.222104 -2738.674531  1388.886496  3864.331043
0.061200  1542.561489 -2737.831438 -3646.865461   -20.009662  3667.529626  2797.787950
0.062400 -1585.566757 -3990.810595 -1394.541940  2913.871999  3550.222702  -208.927972
0.063600 -3635.180813 -2541.469360  1649.521698  3743.113533  1206.362554 -2738.219776
0.064800 -3239.775292   187.890068  3283.198822  2358.789946 -1353.216823 -3375.477218
0.066000 -1327.201670  2289.346780  3119.126384   199.022885 -2949.979114 -2552.662342
0.067200   920.418820  3326.372629  1738.816998 -2019.270936 -3389.055345  -595.866437
0.068400  3008.252033  2952.683940  -785.657577 -3624.154749 -1987.658373  2176.747778
0.069600  3681.088730   573.856372 -3287.987650 -3034.141658  1025.098798  3784.621769
0.070800  1792.281892 -2405.833666 -3556.811930  -286.984152  3258.834404  2709.644855
0.072000 -1137.289906 -3479.709007 -1523.379581  2208.664755  3156.221772   292.833659
0.073200 -2829.272696 -2498.114674   791.737758  3078.349598  1673.189402 -1725.603009
0.074400 -3058.333287  -718.847040  2511.184866  2729.811007  -365.335129 -3082.704744
0.075600 -2081.571565  1521.543563  3337.261239  1041.573186 -2618.663832 -3083.326007
0.076800   302.684308  3361.630548  2242.567081 -1692.398010 -3550.024049  -979.745203
0.078000  2835.760398  3098.339398  -518.461463 -3442.288869 -2048.965832  1849.100883
0.079200  3393.146335   745.658040 -2764.751657 -2819.449932   562.080486  3180.381309
0.080400  1857.117255 -1668.479278 -3070.230268  -761.296532  2392.278512  2631.992553
0.081600  -276.060173 -2830.037509 -1961.191784  1265.889933  2958.748935  1098.930048
0.082800 -2089.156580 -2790.200581  -113.723882  2762.579710  2318.531475 -1006.775327
0.084000 -3170.573874 -1439.126198  2123.830073  3113.764247   234.895763 -2997.049581
0.085200 -2534.205199  1131.083705  3419.726589  1423.992944 -2366.516004 -3190.850062
0.086400   -22.595403  3135.185266  2356.191346 -1328.241168 -3301.067112 -1164.696388
0.087600  2339.755363  2886.790811   -89.280574 -2854.495002 -2083.096928  1159.744856
0.088800  2907.327771  1142.369843 -1926.376371 -2646.459588  -214.964364  2450.772552
0.090000  2188.812849  -699.572435 -2766.233611 -1522.668529  1587.504916  2836.949859
0.091200   645.574452 -2409.743578 -2575.904042   471.705785  3027.006813  1852.647132
0.092400 -1676.542454 -3167.036810  -701.540928  2671.960016  2728.270632  -643.381374
0.093600 -3229.592295 -1762.090572  1905.348644  3153.139561   460.054007 -2738.864542
0.094800 -2499.454976   793.743885  3038.392300  1516.873958 -1817.405194 -2848.278338
0.096000  -395.986687  2451.019931  2258.476789  -621.211444 -2680.332873 -1517.333634
0.097200  1434.820487  2650.088893   674.553791 -2110.273314 -2351.466731   237.443952
0.098400  2556.970500  1808.480271 -1152.902402 -2778.951098 -1020.054893  2055.829992
0.099600  2647.705398   -45.651621 -2734.466099 -2065.424369  1198.072370  3023.576043
0.100800  1090.480375 -2243.564178 -2796.634229   165.822783  2927.694604  2011.450377
0.102000 -1406.747169 -3036.651184  -871.585595  2341.965647  2600.251918  -351.177992
0.103200 -2792.760538 -1744.532226  1397.198247  2737.764266   727.322121 -2082.790355
0.104400 -2303.241996   233.186233  2417.647924  1675.942342 -1037.162728 -2481.577134
0.105600  -955.921654  1704.877732  2334.590743   163.244984 -2240.704262 -1969.723716
0.106800   718.171640  2609.424788  1328.204789 -1647.210924 -2658.670860  -363.353250
0.108000  2450.419549  2242.532794  -791.780260 -2874.863848 -1366.981943  1879.875843
