##TITLE=1D-13C-1-2-5-328-110-"no"-"yes"
##JCAMP-DX=5.01 $$ Magritek Spinsolve SPA1903 2.0.4.4423
##DATA TYPE=NMR FID
##DATA CLASS=NTUPLES
##ORIGIN=SPA1903 at Magritek
##OWNER=Copyright (C) 2025 by Magritek
##LONGDATE=2025/03/17 11:58:13.857
##.OBSERVE FREQUENCY=15.4860999900848
##.OBSERVE NUCLEUS=^13C
##.DELAY=( 20,  2000)
##.ACQUISITION MODE=SIMULTANEOUS
##.FIELD= 1.5
##.AVERAGES= 1
##.DIGITISER RES=16
##.SHIFT REFERENCE=(INTERNAL, Water, 4096, 0)
##$REFERENCE_POINT= 796.529    $$ Referencing label
$$      Distance of the zero axis position (in Hz) from the last data
$$      point (right edge); positive values -> right edge is below 0 Hz
##SPECTROMETER/DATA SYSTEM=Magritek
##SAMPLE DESCRIPTION=solvent=Water
$$ Bruker specific parameters
$$ --------------------------
##$AUNMP=   <proc_1d_nosref>
##$INSTRUM= <Magritek>
##$SI=      8192
##$TD=      8192
##$TDeff=   8192
##$SW=      322.870200
##$BF1=     15.4860999900848
##$SF=      15.4843965190859
##$LB=      0
##$PHC0=    217.1
##$PHC1=    0.0
##$REVERSE= yes
$$ End of Bruker specific parameters
$$ ---------------------------------
##NTUPLES=NMR FID
##VAR_NAME=        TIME,            FID/REAL,            FID/IMAG, PAGE NUMBER
##SYMBOL=             X,                   R,                   I,           N
##VAR_TYPE= INDEPENDENT,           DEPENDENT,           DEPENDENT,        PAGE
##VAR_FORM=        AFFN,                AFFN,                AFFN,        AFFN
##VAR_DIM=         8192,                8192,                8192,           2
##UNITS=        SECONDS,     ARBITRARY UNITS,     ARBITRARY UNITS,            
##FIRST=              0,                   0,                   0,           1
##LAST=    1.638199e+00,   0.312773094504729,  -0.367881737344584,           2
##MIN=                0,   -6632.25029493046,   -6370.27262981826,           1
##MAX=     1.638199e+00,    6410.44814355403,    6897.90257511984,           2
##FACTOR=             1,                   1,                   1,           1
##PAGE=N=1
##DATA TABLE=(X++(R..R)), XYDATA
0.000000     0.000000  2762.189415 -5046.341564 -6422.196599   296.827367  6410.448144
0.001200  4588.409819 -2827.714381 -6632.250295 -2241.999415  4761.108091  5791.110339
0.002400  -201.056632 -5769.458451 -4286.931527  2279.166339  6014.821036  2488.042982
0.003600 -3996.378741 -5636.402051  -482.406549  5249.076783  4658.042341 -1580.131665
0.004800 -5970.933674 -3137.098967  3608.122945  6041.353292  1040.505480 -5346.339407
0.006000 -5206.568439  1404.428482  6353.524117  3460.772606 -3786.706599 -6388.472424
0.007200 -1030.736402  5632.622148  5289.085645 -1640.534488 -6493.605379 -3248.522588
0.008400  3985.567018  6206.906113   744.325099 -5544.745853 -4913.977884  1716.073231
0.009600  6113.157094  2964.935779 -3717.369997 -5724.887559  -761.387443  4995.089903
0.010800  4608.080627 -1297.927119 -5545.927451 -3081.784036  3066.233256  5486.028724
0.012000  1278.140179 -4463.659179 -4810.470287   657.606346  5382.651298  3613.798956
0.013200 -2609.044593 -5757.131989 -1853.863607  4448.598470  5338.893750  -400.838629
0.014400 -5720.977289 -3982.822097  2744.231265  6143.086105  1893.951088 -4774.919968
0.015600 -5483.790670   675.311407  5953.039293  3763.607184 -3049.678647 -5982.347492
0.016800 -1502.300498  4737.612608  5042.180456  -838.429183 -5540.589927 -3363.830328
0.018000  2806.440788  5401.626237  1466.563955 -4117.928290 -4672.996657   367.263550
0.019200  4910.117763  3528.228680 -2096.144054 -5187.566068 -2037.091308  3593.248123
0.020400  4940.888814   293.809695 -4824.054832 -4114.528375  1719.828601  5552.574980
0.021600  2551.737793 -3684.174184 -5428.712618  -429.651255  5183.682837  4384.461297
0.022800 -1911.908399 -5859.712638 -2494.840643  3981.676158  5464.737306   146.842599
0.024000 -5291.117505 -4115.793992  2122.060469  5638.224222  2168.412877 -3878.971468
0.025200 -5062.665570   -62.555764  4892.874108  3802.303163 -1858.445131 -5143.408621
0.026400 -2176.692315  3337.086193  4765.430353   456.103267 -4372.411231 -3910.635983
0.027600  1280.675126  4929.726058  2621.914204 -2871.052708 -4926.949987 -1002.712788
0.028800  4218.880771  4365.760151  -888.757652 -5162.861553 -3095.017916  2858.577410
0.030000  5337.685364  1203.386594 -4485.110112 -4655.914253   993.821751  5462.519973
0.031200  3105.053434 -3151.167735 -5434.378621  -931.543161  4665.138317  4414.700325
0.032400 -1269.514198 -5293.758620 -2728.259531  3130.916885  5009.247489   723.687201
0.033600 -4293.161252 -3966.697690  1093.419388  4698.853416  2614.997567 -2552.176484
0.034800 -4591.177721 -1105.903008  3676.269330  4018.049016  -458.535962 -4401.281712
0.036000 -3074.371853  2010.383227  4754.098035  1714.086429 -3534.791239 -4520.639942
0.037200    97.070497  4697.662221  3522.758159 -2078.210875 -5171.821462 -1829.298405
0.038400  3851.491205  4740.309295  -310.729665 -4977.272002 -3401.573985  2403.866833
0.039600  5147.685367  1480.664098 -3948.123909 -4398.358629   560.076362  4707.212697
0.040800  3010.295537 -2296.218878 -4676.511210 -1330.298324  3522.399938  4010.713927
0.042000  -323.197156 -4167.498820 -2957.636070  1772.303642  4348.246205  1679.865084
0.043200 -3016.876328 -4066.211532  -200.521837  3929.903392  3332.884809 -1338.522347
0.044400 -4463.149293 -2147.584653  2878.853571  4440.695547   501.554916 -4135.344656
0.045600 -3684.162987  1364.625823  4772.827136  2275.786666 -3095.411571 -4646.980929
0.046800  -381.864354  4375.381662  3639.272099 -1623.384253 -4801.366049 -2002.362549
0.048000  3219.754802  4389.492438   138.335566 -4204.825381 -3291.244081  1618.602360
0.049200  4408.963717  1779.855936 -2890.873802 -3961.209803  -273.927504  3670.308316
0.050400  3167.564167 -1126.176465 -4020.407141 -2062.824431  2344.364816  3942.560271
0.051600   816.363074 -3349.423146 -3534.173017   610.987042  4130.223387  2617.953477
0.052800 -2190.688116 -4383.042896 -1159.414323  3585.045087  3941.788762  -647.309929
0.054000 -4503.243943 -2747.770783  2479.106539  4612.090038   959.156054 -3882.166992
0.055200 -3837.153932   975.649095  4500.129038  2397.538699 -2597.037522 -4286.459385
0.056400  -696.284068  3637.396120  3427.497982  -910.847094 -4021.846339 -2224.813189
0.057600  2178.502061  3875.360622   918.053337 -3091.514993 -3375.709523   385.980211
0.058800  3695.052141  2561.435105 -1688.546710 -3931.528608 -1428.055954  2863.072395
0.060000  3744.049426    21.917821 -3827.900496 -3009.913947  1584.664752  4292.996600
0.061200  1674.482656 -3067.583934 -4039.905965    16.987820  4097.709780  3086.896730
0.062400 -1804.828059 -4441.446689 -1516.678344  3266.043188  3928.010206  -264.820307
0.063600 -4064.020584 -2800.732259  1879.933781  4164.717859  1301.985928 -3082.368145
0.064800 -3586.291663   261.718525  3669.736714  2587.159762 -1557.759477 -3758.302071
0.066000 -1429.583513  2581.556210  3449.075320   164.527410 -3296.803830 -2794.395687
0.067200  1063.508958  3680.752986  1874.422794 -2270.055325 -3740.464636  -614.622390
0.068400  3353.949135  3242.780376  -910.960697 -4012.157467 -2161.645145  2440.622964
0.069600  4067.196189   595.497023 -3665.965506 -3340.631095  1180.416095  4205.464386
0.070800  1956.240947 -2704.093079 -3935.402223  -274.262818  3643.020965  2976.469845
0.072000 -1314.167957 -3871.188106 -1645.107015  2493.844220  3486.982215   266.927648
0.073200 -3168.983495 -2733.316412   940.815632  3425.767948  1801.030677 -1956.470910
0.074400 -3360.560161  -731.364002  2805.336257  2985.523693  -455.333206 -3409.604210
0.075600 -2256.637204  1717.246177  3676.257296  1108.862346 -2919.566522 -3374.375574
0.076800   394.100320  3727.549440  2441.019547 -1909.704715 -3914.034196 -1029.082720
0.078000  3166.753138  3394.768502  -624.752497 -3821.541845 -2222.073865  2089.618779
0.079200  3744.445422   774.553469 -3088.890738 -3089.492235   686.892020  3531.966651
0.080400  2004.932374 -1898.367898 -3391.557776  -783.040795  2685.747478  2879.992320
0.081600  -368.852981 -3143.621832 -2112.038726  1454.589571  3247.913270  1145.560287
0.082800 -2340.208087 -3042.240746   -63.371034  3058.525386  2501.016128 -1163.385952
0.084000 -3482.961836 -1530.988151  2372.101530  3405.283596   211.421711 -3316.315026
0.085200 -2751.359615  1285.352952  3767.915291  1532.056269 -2641.664510 -3497.205845
0.086400    24.850936  3480.166778  2569.069467 -1511.614177 -3643.352993 -1235.535141
0.087600  2624.924210  3163.670925  -165.195142 -3173.049884 -2250.651439  1341.331491
0.088800  3206.105321  1201.947738 -2166.702077 -2883.915958  -168.989347  2719.127880
0.090000  2357.264794  -826.653133 -3036.140479 -1621.189206  1777.968798  3093.658174
0.091200   658.095986 -2667.670018 -2793.190001   559.970237  3323.366509  1990.380007
0.092400 -1873.567848 -3461.199248  -725.422770  2958.603362  2978.311318  -746.749904
0.093600 -3559.238509 -1902.486182  2136.315681  3460.004244   458.391197 -3042.293440
0.094800 -2717.507404   928.656155  3357.605763  1624.204437 -2046.928580 -3119.403803
0.096000  -369.090007  2724.174627  2443.284290  -730.723294 -2949.303674 -1614.477199
0.097200  1630.539081  2890.944472   677.667816 -2341.565910 -2535.099280   318.873619
0.098400  2800.658092  1931.729051 -1305.410232 -3021.380612 -1054.585740  2272.654694
0.099600  2860.562150   -99.148087 -2997.783194 -2220.990940  1342.245857  3297.986554
0.100800  1150.556124 -2481.735467 -3040.398120   224.577739  3214.406856  2169.950004
0.102000 -1581.463478 -3327.638154  -916.683910  2597.539343  2827.680290  -440.031203
0.103200 -3083.309315 -1869.782568  1583.429488  2995.178204   735.523461 -2324.020548
0.104400 -2492.429838   318.992270  2659.283033  1775.632180 -1194.460898 -2698.098356
0.105600  -979.305860  1903.101777  2517.666057   116.918706 -2452.229217 -2094.851745
0.106800   824.915044  2817.403632  1395.299419 -1815.433187 -2869.415211  -345.998887
0.108000  2680.561739  2410.131431  -897.979365 -3137.260769 -1456.562719  2083.619472
