##TITLE=1D-13C-1-5-5-328-110-"no"-"yes"
##JCAMP-DX=5.01 $$ Magritek Spinsolve SPA1903 2.0.4.4423
##DATA TYPE=NMR FID
##DATA CLASS=NTUPLES
##ORIGIN=SPA1903 at Magritek
##OWNER=Copyright (C) 2025 by Magritek
##LONGDATE=2025/02/12 14:31:38.985
##.OBSERVE FREQUENCY=15.4861775226891
##.OBSERVE NUCLEUS=^13C
##.DELAY=( 20,  5000)
##.ACQUISITION MODE=SIMULTANEOUS
##.FIELD= 1.5
##.AVERAGES= 1
##.DIGITISER RES=16
##.SHIFT REFERENCE=(INTERNAL, Water, 4096, 0)
##$REFERENCE_POINT= 796.520    $$ Referencing label
$$      Distance of the zero axis position (in Hz) from the last data
$$      point (right edge); positive values -> right edge is below 0 Hz
##SPECTROMETER/DATA SYSTEM=Magritek
##SAMPLE DESCRIPTION=solvent=Water
$$ Bruker specific parameters
$$ --------------------------
##$AUNMP=   <proc_1d_nosref>
##$INSTRUM= <Magritek>
##$SI=      8192
##$TD=      8192
##$TDeff=   8192
##$SW=      322.868600
##$BF1=     15.4861775226891
##$SF=      15.4844740431616
##$LB=      0
##$PHC0=    217.4
##$PHC1=    0.0
##$REVERSE= yes
$$ End of Bruker specific parameters
$$ ---------------------------------
##NTUPLES=NMR FID
##VAR_NAME=        TIME,            FID/REAL,            FID/IMAG, PAGE NUMBER
##SYMBOL=             X,                   R,                   I,           N
##VAR_TYPE= INDEPENDENT,           DEPENDENT,           DEPENDENT,        PAGE
##VAR_FORM=        AFFN,                AFFN,                AFFN,        AFFN
##VAR_DIM=         8192,                8192,                8192,           2
##UNITS=        SECONDS,     ARBITRARY UNITS,     ARBITRARY UNITS,            
##FIRST=              0,                   0,                   0,           1
##LAST=    1.638199e+00,   0.213454990432141,  0.0492380280214241,           2
##MIN=                0,   -232.649084055511,   -229.805974658416,           1
##MAX=     1.638199e+00,    225.909100380421,    238.781474169017,           2
##FACTOR=             1,                   1,                   1,           1
##PAGE=N=1
##DATA TABLE=(X++(R..R)), XYDATA
0.000000     0.000000   102.334653  -170.462269  -224.715175     3.007303   217.568386
0.001200   166.435738   -89.441112  -232.649084   -88.114677   162.690488   207.392166
0.002400     4.287450  -200.209785  -161.986918    71.033961   216.539699    98.951124
0.003600  -133.645183  -203.810557   -28.259573   183.986398   176.196296   -45.115764
0.004800  -212.965764  -124.351202   117.803286   219.141327    51.671062  -181.730882
0.006000  -193.424793    31.690380   220.277307   138.557159  -113.826526  -229.607131
0.007200   -57.945650   188.306199   198.660348   -31.986788  -222.863942  -135.904373
0.008400   118.899102   225.909100    58.472865  -183.637560  -193.260234    32.734389
0.009600   211.454691   134.723710  -107.164546  -212.240678   -58.495030   162.016813
0.010800   186.056570   -13.341741  -197.039862  -140.989117    86.036762   205.230787
0.012000    77.189827  -143.619985  -192.447103    -4.241168   190.439734   156.922863
0.013200   -68.076050  -217.236882   -95.562710   140.974046   205.924672    19.593865
0.014400  -195.735950  -170.641634    65.548067   224.572248   106.265814  -146.989213
0.015600  -216.104432   -20.385529   196.665214   169.520361   -68.237498  -219.233134
0.016800  -100.103142   140.139709   203.466637    16.787231  -186.173692  -159.920231
0.018000    60.610341   201.761005    98.982419  -120.352991  -194.339896   -31.712421
0.019200   164.650841   162.897261   -37.723238  -194.556241  -118.538453    98.260222
0.020400   198.228449    56.299680  -160.628223  -183.732421    14.843983   199.389347
0.021600   138.683283   -96.064169  -214.501746   -68.830234   163.480023   194.345320
0.022800   -15.421072  -204.561993  -140.334538    99.923347   216.940805    66.404214
0.024000  -162.833799  -189.820074    17.508289   200.552185   136.388182   -91.215546
0.025200  -205.535075   -65.423204   152.790513   179.215161    -8.852085  -184.139473
0.026400  -136.950140    73.995880   195.826374    80.289991  -130.960050  -185.302894
0.027600   -12.871992   176.235010   151.410635   -55.919510  -196.124821  -100.217780
0.028800   120.228232   197.255496    27.857231  -178.417400  -165.808805    50.489141
0.030000   206.536832   110.212707  -122.087720  -206.452927   -34.207889   179.217831
0.031200   170.569815   -49.938967  -209.097959  -109.618246   121.813880   198.534232
0.032400    29.900117  -172.499079  -162.717002    47.246302   195.461743   104.186610
0.033600  -111.617115  -188.503204   -36.761231   154.008355   160.095999   -25.550513
0.034800  -182.793560  -115.300005    88.925946   187.932367    60.225450  -142.001642
0.036000  -171.476308     6.404585   180.124463   136.880005   -78.654946  -200.133973
0.037200   -76.220886   143.406924   186.062472    -1.516396  -189.919779  -144.109924
0.038400    80.993333   207.243456    77.204268  -147.813940  -188.435132     2.045455
0.039600   187.688875   139.676270   -79.104437  -198.421012   -69.490447   139.258529
0.040800   174.376820    -1.050353  -174.103121  -133.312720    66.694904   181.403130
0.042000    76.839180  -119.325117  -171.210528   -17.061131   157.257428   143.133849
0.043200   -46.818665  -179.635483   -96.418414   104.025761   180.116882    37.147547
0.044400  -155.085238  -158.825095    32.659268   187.211817   110.814080  -102.611343
0.045600  -187.392510   -42.424856   157.501581   166.839154   -33.423812  -190.793558
0.046800  -111.590121   106.087588   188.507737    38.427441  -158.080027  -161.338276
0.048000    34.261157   184.295129   106.615164  -100.341938  -183.112980   -39.315865
0.049200   147.679141   151.206068   -25.773566  -170.982619  -109.832805    80.522790
0.050400   172.461377    56.815028  -128.614010  -158.646717     3.484730   163.285339
0.051600   125.730879   -63.082434  -178.420372   -75.368454   122.894065   175.397508
0.052800     9.794889  -169.071421  -141.507601    60.512903   191.779446    83.357008
0.054000  -129.809075  -180.232891    -9.667793   173.773787   142.922927   -65.752604
0.055200  -188.736284   -76.578237   128.374588   172.780593     8.207533  -163.816739
0.056400  -132.577094    59.321728   176.804966    75.138341  -112.856186  -163.212021
0.057600   -19.979741   149.044281   136.077636   -36.996581  -166.582261   -94.001193
0.058800    92.944130   169.884368    42.110365  -137.710076  -148.955911    22.017352
0.060000   169.266589   112.441615   -88.495527  -182.203136   -51.396266   140.606165
0.061200   160.739168   -18.361399  -177.813208  -117.073563    88.743705   185.517695
0.062400    51.945306  -144.507270  -161.889758    20.722946   175.274310   112.083193
0.063600   -87.266121  -177.742229   -52.410246   135.915342   156.077377   -16.118954
0.064800  -163.797980  -112.472252    73.122690   168.174799    61.044122  -118.361132
0.066000  -154.495521    -1.040480   153.227370   121.914222   -54.951445  -166.686331
0.067200   -76.514107   108.502957   163.846655    17.462623  -152.759606  -137.519760
0.068400    47.060926   172.403738    86.709060  -110.140038  -171.596808   -22.786200
0.069600   158.188499   142.084374   -49.599692  -180.009895   -88.334597   112.170415
0.070800   169.726900    18.858417  -153.659789  -135.173517    48.157698   169.859047
0.072000    80.474617  -100.696152  -158.453127   -22.073175   139.394836   132.079671
0.073200   -33.065981  -157.355675   -90.081226    85.479037   159.879092    41.984820
0.074400  -125.526971  -141.728658    14.465826   154.386616   106.859314   -73.655814
0.075600  -169.946342   -57.793950   126.478438   155.987020    -7.739325  -163.125568
0.076800  -116.822848    75.413479   177.416873    59.336714  -129.908961  -157.510823
0.078000     9.126645   164.318088   114.812771   -75.948183  -168.866617   -54.080691
0.079200   123.610641   151.149753    -6.498224  -156.802929  -110.601846    65.870565
0.080400   159.525905    62.477781  -107.946433  -144.775224    -5.843709   140.022607
0.081600   116.699296   -45.772617  -154.715630   -74.435263    98.386851   152.374708
0.082800    23.394308  -132.803120  -129.569802    35.474375   161.161150    90.186434
0.084000   -94.949365  -162.872186   -30.088269   139.157009   138.406961   -34.615900
0.085200  -165.572989   -90.306346    96.365284   163.590002    28.225860  -140.134474
0.086400  -137.998153    35.474991   164.565202    89.249126   -92.329677  -158.651049
0.087600   -30.460857   129.679910   129.224646   -26.443131  -146.996936   -91.558953
0.088800    75.039631   148.950840    42.170639  -114.491090  -132.806720     5.307368
0.090000   139.179373   105.811066   -59.888786  -153.018370   -61.385964   108.333547
0.091200   147.261942     6.326482  -145.663829  -118.588513    58.047509   164.282386
0.092400    67.266035  -113.867601  -156.054410    -5.632538   150.756151   118.865269
0.093600   -60.577211  -162.832574   -63.833136   114.270554   148.429160     0.466083
0.094800  -142.992852  -111.785566    54.869048   154.190308    64.342691  -102.147004
0.096000  -140.840754    -9.891838   131.678561   112.706864   -38.322461  -142.494327
0.097200   -75.346613    83.741203   141.474076    27.643897  -122.636789  -125.766896
0.098400    24.408922   145.000770    90.830216   -77.260453  -150.515259   -37.695621
0.099600   123.900136   134.937552   -19.985400  -153.243513   -98.658180    78.405260
0.100800   159.394811    43.427028  -125.182845  -135.688405    21.073479   150.438965
0.102000    94.229439   -77.842914  -153.481179   -39.349646   119.582589   129.834874
0.103200   -18.569714  -143.471550   -91.123695    69.898814   142.262788    44.304638
0.104400  -105.585927  -127.466698     2.743550   129.480124    98.388336   -53.072243
0.105600  -141.849715   -58.325203    95.744190   135.261065    11.285964  -130.099969
0.106800  -112.093054    43.590553   147.510536    69.837386   -95.363108  -143.974576
0.108000   -16.256049   136.199131   117.481353   -45.164982  -154.174135   -70.449708
