##TITLE=1D-13C-1-2-5-328-110-"no"-"yes"
##JCAMP-DX=5.01 $$ Magritek Spinsolve SPA1903 2.0.4.4423
##DATA TYPE=NMR FID
##DATA CLASS=NTUPLES
##ORIGIN=SPA1903 at Magritek
##OWNER=Copyright (C) 2025 by Magritek
##LONGDATE=2025/03/17 11:59:15.807
##.OBSERVE FREQUENCY=15.4860999900848
##.OBSERVE NUCLEUS=^13C
##.DELAY=( 20,  2000)
##.ACQUISITION MODE=SIMULTANEOUS
##.FIELD= 1.5
##.AVERAGES= 1
##.DIGITISER RES=16
##.SHIFT REFERENCE=(INTERNAL, Water, 4096, 0)
##$REFERENCE_POINT= 796.529    $$ Referencing label
$$      Distance of the zero axis position (in Hz) from the last data
$$      point (right edge); positive values -> right edge is below 0 Hz
##SPECTROMETER/DATA SYSTEM=Magritek
##SAMPLE DESCRIPTION=solvent=Water
$$ Bruker specific parameters
$$ --------------------------
##$AUNMP=   <proc_1d_nosref>
##$INSTRUM= <Magritek>
##$SI=      8192
##$TD=      8192
##$TDeff=   8192
##$SW=      322.870200
##$BF1=     15.4860999900848
##$SF=      15.4843965190859
##$LB=      0
##$PHC0=    216.6
##$PHC1=    0.0
##$REVERSE= yes
$$ End of Bruker specific parameters
$$ ---------------------------------
##NTUPLES=NMR FID
##VAR_NAME=        TIME,            FID/REAL,            FID/IMAG, PAGE NUMBER
##SYMBOL=             X,                   R,                   I,           N
##VAR_TYPE= INDEPENDENT,           DEPENDENT,           DEPENDENT,        PAGE
##VAR_FORM=        AFFN,                AFFN,                AFFN,        AFFN
##VAR_DIM=         8192,                8192,                8192,           2
##UNITS=        SECONDS,     ARBITRARY UNITS,     ARBITRARY UNITS,            
##FIRST=              0,                   0,                   0,           1
##LAST=    1.638199e+00,  -0.267016200073294,   0.596983897390855,           2
##MIN=                0,   -3950.75924936528,   -3854.03572533988,           1
##MAX=     1.638199e+00,    3828.88275651997,    4120.66284891331,           2
##FACTOR=             1,                   1,                   1,           1
##PAGE=N=1
##DATA TABLE=(X++(R..R)), XYDATA
0.000000     0.000000  1661.118560 -3001.375675 -3841.572675   166.523228  3828.882757
0.001200  2747.554817 -1682.825253 -3950.759249 -1338.836165  2835.374987  3450.609360
0.002400  -112.990141 -3431.878001 -2560.311971  1344.770362  3579.449967  1498.311252
0.003600 -2363.314026 -3365.918439  -320.785097  3116.932894  2803.901299  -907.628700
0.004800 -3565.287812 -1913.536006  2126.028676  3633.897212   673.594267 -3188.686242
0.006000 -3156.753238   802.267784  3824.556407  2128.077709 -2249.504686 -3864.867095
0.007200  -663.698542  3383.961230  3217.023252  -952.770214 -3918.795315 -1996.765887
0.008400  2387.725711  3763.937204   472.712070 -3337.432547 -2980.768730  1009.659631
0.009600  3680.379881  1806.806569 -2216.376419 -3454.027341  -494.387585  2991.180967
0.010800  2802.544326  -746.659623 -3338.378089 -1897.479120  1808.437721  3315.615501
0.012000   828.333175 -2663.706128 -2951.971639   334.960335  3251.177699  2249.826689
0.013200 -1529.521815 -3514.496735 -1194.955104  2662.954718  3288.427870  -170.968817
0.014400 -3482.010818 -2486.975381  1630.739972  3763.025874  1206.924814 -2883.457470
0.015600 -3380.109623   354.449274  3621.240916  2345.900952 -1822.922636 -3662.786621
0.016800  -966.137007  2857.485771  3095.616655  -455.396579 -3360.282495 -2098.990726
0.018000  1652.430115  3301.778982   959.146703 -2467.479879 -2879.914268   162.843954
0.019200  2980.126738  2208.634200 -1210.432230 -3173.809869 -1327.448676  2140.026883
0.020400  3063.055175   255.522573 -2936.429484 -2581.536063   978.844779  3416.650399
0.021600  1651.255575 -2206.099396 -3378.986384  -350.406987  3168.763964  2760.972891
0.022800 -1109.398664 -3616.695874 -1603.853910  2408.010235  3401.019509   165.366237
0.024000 -3238.039301 -2596.392238  1242.359705  3479.164205  1400.906080 -2336.701214
0.025200 -3144.839605  -117.367089  2979.859787  2400.337846 -1064.171232 -3164.524011
0.026400 -1419.427709  1991.411173  2964.159805   371.572678 -2651.546489 -2479.315957
0.027600   690.822022  3034.636001  1713.905420 -1700.831995 -3085.675875  -726.386233
0.028800  2574.829788  2778.154798  -451.688565 -3194.230760 -2015.901362  1703.064261
0.030000  3362.204702   844.865447 -2759.815011 -2956.909351   543.401712  3398.672048
0.031200  2011.121854 -1887.513961 -3407.050159  -670.574660  2867.939580  2805.394626
0.032400  -707.268567 -3278.762696 -1773.256469  1869.314045  3132.501091   552.196686
0.033600 -2606.773242 -2527.305593   574.873892  2905.356273  1719.709452 -1502.848725
0.034800 -2888.844897  -801.854823  2226.753084  2575.368895  -159.835589 -2727.289295
0.036000 -2029.810991  1166.843136  3012.666962  1189.511416 -2154.145619 -2904.511453
0.037200   -54.037216  2932.684191  2313.308046 -1219.288703 -3280.752807 -1250.198081
0.038400  2359.915044  3043.155358   -92.539551 -3109.902306 -2224.333218  1417.777165
0.039600  3254.203954  1034.390336 -2417.892860 -2826.392975   238.985020  2933.972372
0.040800  1984.245045 -1348.113851 -2952.348045  -959.187763  2137.452787  2588.436623
0.042000   -70.324883 -2594.110415 -1965.842018  1008.889780  2754.291354  1181.530213
0.043200 -1819.154777 -2637.693507  -267.857448  2454.445815  2225.356650  -735.019291
0.044400 -2845.517728 -1492.106759  1741.915317  2888.463349   455.624578 -2587.644392
0.045600 -2446.798235   750.491520  3054.373410  1565.306998 -1891.683849 -3011.214008
0.046800  -367.032545  2738.514770  2409.278668  -918.364030 -3067.578851 -1389.853370
0.048000  1965.715835  2843.317164   217.659224 -2620.578733 -2183.257522   899.297545
0.049200  2800.201937  1274.038086 -1734.754416 -2584.513516  -327.299542  2273.674157
0.050400  2120.391098  -568.233369 -2556.055618 -1472.784476  1383.875296  2587.687779
0.051600   676.297306 -2090.947005 -2372.691509   258.101519  2644.067321  1816.369103
0.052800 -1292.881462 -2875.396443  -890.316534  2251.926406  2628.460138  -285.420438
0.054000 -2886.721937 -1887.976963  1493.337537  3006.153534   753.959656 -2421.510153
0.055200 -2552.806149   485.326587  2868.864900  1662.132810 -1551.104166 -2785.403509
0.056400  -593.986736  2252.073937  2295.508357  -427.530745 -2558.258297 -1569.554579
0.057600  1267.898067  2533.526569   753.793667 -1902.095158 -2267.537440    85.792603
0.058800  2360.139185  1799.574654  -956.907816 -2584.097938 -1088.190295  1771.767023
0.060000  2515.448353   165.620189 -2447.206264 -2080.503248   899.912862  2812.198626
0.061200  1241.094323 -1905.475285 -2707.118729  -134.140911  2624.339745  2116.593375
0.062400 -1038.407641 -2892.336628 -1125.865291  2021.517211  2623.551204   -19.967106
0.063600 -2591.012002 -1928.099586  1082.801211  2701.198683   992.731723 -1885.342484
0.064800 -2400.635284    -5.253843  2323.482477  1809.932442  -856.076448 -2449.052042
0.066000 -1093.019169  1559.977623  2325.261301   293.147673 -2089.551419 -1967.913980
0.067200   535.277057  2426.841032  1398.098878 -1371.308836 -2524.745464  -573.191027
0.068400  2145.141296  2256.401492  -449.300708 -2649.077606 -1567.182157  1500.163486
0.069600  2727.147995   545.017739 -2343.109093 -2302.178009   629.063806  2750.170371
0.070800  1422.768055 -1645.989078 -2622.683747  -340.332359  2306.166607  2064.051220
0.072000  -686.340274 -2514.390624 -1242.652275  1482.789944  2345.438900   374.294165
0.073200 -1987.813718 -1920.389870   431.643224  2240.414380  1359.702391 -1145.954038
0.074400 -2282.549115  -678.721317  1768.549867  2105.255655  -119.448105 -2248.036193
0.075600 -1655.904173  1004.826623  2493.069967   908.704932 -1852.076839 -2347.791293
0.076800    94.620358  2449.008580  1768.304837 -1128.811897 -2636.483686  -847.768049
0.078000  2005.518317  2344.435067  -237.478704 -2493.006459 -1629.613411  1230.445184
0.079200  2514.871337   693.791077 -1934.471858 -2148.450736   262.304202  2293.401000
0.080400  1489.029490 -1085.383876 -2282.248160  -721.383135  1664.924188  2022.206145
0.081600   -42.341973 -2044.299487 -1576.101900   788.818497  2208.644986   970.905951
0.082800 -1449.456046 -2143.226138  -243.352860  2008.705869  1837.976803  -619.954399
0.084000 -2371.236361 -1207.252949  1480.124552  2373.710521   313.780789 -2179.369588
0.085200 -1980.142351   713.303726  2541.463312  1186.910754 -1647.125843 -2405.127424
0.086400  -163.256655  2254.878337  1840.523225  -840.951003 -2428.794073  -998.928515
0.087600  1611.371106  2181.091291    97.542177 -2035.543001 -1655.170913   693.830638
0.088800  2147.509948  1003.715880 -1304.248529 -2028.534558  -327.870659  1755.263818
0.090000  1742.930826  -361.726967 -2056.644645 -1286.032560  1071.688641  2171.526917
0.091200   631.010252 -1738.714669 -2024.021026   209.476636  2249.427358  1512.585281
0.092400 -1140.711839 -2404.579940  -666.821999  1925.431785  2121.505383  -341.147868
0.093600 -2381.857165 -1434.370285  1292.545551  2376.182865   495.099495 -1954.578080
0.094800 -1944.716098   441.645355  2226.700936  1261.997388 -1210.130911 -2152.354431
0.096000  -462.427606  1722.717178  1781.152807  -286.847704 -1972.363756 -1274.323393
0.097200   936.944635  2015.028347   668.828222 -1486.371020 -1855.938831    13.917135
0.098400  1887.670424  1498.062719  -734.912184 -2118.278980  -920.065532  1455.793229
0.099600  2070.479048   115.266354 -2020.763962 -1677.601770   774.085389  2292.938343
0.100800   958.501708 -1597.713086 -2168.074889   -18.534038  2146.102017  1620.733224
0.102000  -916.353316 -2286.668144  -803.214945  1645.184794  2013.245671   -95.333855
0.103200 -2036.284311 -1434.508675   889.472762  2064.001606   711.930562 -1444.827576
0.104400 -1812.234541   -11.468270  1761.220061  1406.470632  -618.283767 -1884.226176
0.105600  -893.755589  1171.773872  1848.797140   300.098364 -1649.903546 -1628.557598
0.106800   396.018209  1986.053474  1158.377986 -1144.425993 -2080.782580  -429.408397
0.108000  1802.965170  1811.144771  -463.366482 -2180.652074 -1170.258300  1314.201623
