##TITLE=1D-13C-1-2-5-328-110-"no"-"yes"
##JCAMP-DX=5.01 $$ Magritek Spinsolve SPA1903 2.0.4.4423
##DATA TYPE=NMR FID
##DATA CLASS=NTUPLES
##ORIGIN=SPA1903 at Magritek
##OWNER=Copyright (C) 2025 by Magritek
##LONGDATE=2025/03/17 11:58:44.097
##.OBSERVE FREQUENCY=15.4860999900848
##.OBSERVE NUCLEUS=^13C
##.DELAY=( 20,  2000)
##.ACQUISITION MODE=SIMULTANEOUS
##.FIELD= 1.5
##.AVERAGES= 1
##.DIGITISER RES=16
##.SHIFT REFERENCE=(INTERNAL, Water, 4096, 0)
##$REFERENCE_POINT= 796.529    $$ Referencing label
$$      Distance of the zero axis position (in Hz) from the last data
$$      point (right edge); positive values -> right edge is below 0 Hz
##SPECTROMETER/DATA SYSTEM=Magritek
##SAMPLE DESCRIPTION=solvent=Water
$$ Bruker specific parameters
$$ --------------------------
##$AUNMP=   <proc_1d_nosref>
##$INSTRUM= <Magritek>
##$SI=      8192
##$TD=      8192
##$TDeff=   8192
##$SW=      322.870200
##$BF1=     15.4860999900848
##$SF=      15.4843965190859
##$LB=      0
##$PHC0=    217.1
##$PHC1=    0.0
##$REVERSE= yes
$$ End of Bruker specific parameters
$$ ---------------------------------
##NTUPLES=NMR FID
##VAR_NAME=        TIME,            FID/REAL,            FID/IMAG, PAGE NUMBER
##SYMBOL=             X,                   R,                   I,           N
##VAR_TYPE= INDEPENDENT,           DEPENDENT,           DEPENDENT,        PAGE
##VAR_FORM=        AFFN,                AFFN,                AFFN,        AFFN
##VAR_DIM=         8192,                8192,                8192,           2
##UNITS=        SECONDS,     ARBITRARY UNITS,     ARBITRARY UNITS,            
##FIRST=              0,                   0,                   0,           1
##LAST=    1.638199e+00,9.34837256700682e-04,   0.232774417173357,           2
##MIN=                0,   -5171.03273808835,   -5002.86952478613,           1
##MAX=     1.638199e+00,    5004.54428263207,    5377.02318955564,           2
##FACTOR=             1,                   1,                   1,           1
##PAGE=N=1
##DATA TABLE=(X++(R..R)), XYDATA
0.000000     0.000000  2159.281653 -3934.537307 -5019.428879   220.894562  5004.544283
0.001200  3580.416362 -2208.605803 -5171.032738 -1749.694012  3708.040829  4513.151000
0.002400  -142.898866 -4494.878222 -3352.455710  1766.438553  4682.973742  1954.414735
0.003600 -3102.231503 -4400.799812  -395.787750  4089.048121  3652.808660 -1213.771904
0.004800 -4673.572753 -2478.780660  2808.134585  4736.205824   840.721281 -4173.601199
0.006000 -4099.745358  1075.571694  4991.710593  2734.112853 -2955.393811 -5016.349946
0.007200  -834.777639  4418.393387  4164.187173 -1279.265775 -5102.103014 -2564.397079
0.008400  3115.736863  4878.065358   593.571509 -4344.482012 -3862.724808  1333.032945
0.009600  4792.044508  2335.961034 -2899.308223 -4496.179915  -619.531302  3909.878824
0.010800  3634.959236  -991.207590 -4349.405190 -2440.405048  2378.673213  4316.596620
0.012000  1041.883888 -3494.293580 -3815.792482   480.464088  4231.994225  2879.124072
0.013200 -2027.839724 -4552.064445 -1497.755835  3489.985499  4239.800398  -276.261903
0.014400 -4519.051694 -3182.485367  2143.273337  4863.121082  1522.740139 -3755.435494
0.015600 -4347.756073   498.277150  4686.766821  2997.947102 -2385.402210 -4730.213445
0.016800 -1216.549442  3725.094617  3999.450030  -629.264866 -4359.628285 -2690.105592
0.018000  2173.654854  4277.367515  1200.629398 -3227.828248 -3716.687210   245.156635
0.019200  3867.973298  2825.355966 -1613.848871 -4114.304255 -1665.105319  2819.892238
0.020400  3944.597677   270.458626 -3815.458165 -3298.663587  1315.913088  4405.535677
0.021600  2078.095289 -2892.102438 -4332.912095  -391.821114  4105.955084  3520.557926
0.022800 -1481.649380 -4654.358172 -2019.746621  3138.351969  4364.647527   162.770536
0.024000 -4198.952981 -3308.083382  1641.527527  4482.625647  1770.491634 -3047.366358
0.025200 -4036.410247  -104.259117  3864.158184  3066.486483 -1424.706599 -4090.072468
0.026400 -1783.135610  2612.643498  3813.289075   425.649994 -3454.784634 -3161.573330
0.027600   957.379919  3927.815400  2152.016727 -2244.818503 -3957.416175  -865.978025
0.028800  3346.558472  3531.389562  -648.014212 -4122.201540 -2536.961590  2236.783576
0.030000  4293.725089  1022.491000 -3566.617589 -3762.660893   746.011228  4358.119987
0.031200  2532.835078 -2471.144623 -4367.437865  -807.632601  3707.481975  3570.593549
0.032400  -967.300215 -4225.653446 -2233.374212  2451.015922  4022.926264   652.345205
0.033600 -3396.719551 -3219.647511   799.586784  3753.262620  2163.020392 -1988.391500
0.034800 -3703.705193  -964.228728  2903.670292  3268.862205  -285.991640 -3524.016011
0.036000 -2539.844882  1560.460790  3843.660229  1447.565380 -2802.809752 -3680.999045
0.037200     4.814368  3768.598743  2903.214613 -1611.528553 -4182.139250 -1536.031899
0.038400  3066.268424  3855.595554  -183.449900 -3989.634613 -2792.490286  1866.724797
0.039600  4153.199733  1264.858681 -3130.781408 -3582.250172   374.647779  3774.456499
0.040800  2484.735171 -1785.845705 -3773.675008 -1155.622460  2785.576159  3275.293991
0.042000  -169.212531 -3342.352997 -2456.886698  1356.511758  3516.936211  1443.488452
0.043200 -2376.538453 -3337.233905  -254.367871  3162.816904  2767.642797 -1017.636559
0.044400 -3625.724264 -1828.054883  2275.397884  3637.198162   493.781232 -3327.222826
0.045600 -3054.256613  1024.599489  3874.977479  1921.738434 -2453.710790 -3798.022699
0.046800  -390.393682  3510.770804  3011.541359 -1234.051715 -3895.845896 -1700.136543
0.048000  2549.118622  3590.045503   204.788908 -3358.000596 -2727.394959  1213.983274
0.049200  3569.313388  1543.788416 -2263.597592 -3249.104271  -332.618902  2931.170670
0.050400  2641.154010  -805.543150 -3256.474075 -1784.469957  1827.636271  3254.373833
0.051600   777.147530 -2691.158320 -2951.437237   407.577160  3357.779015  2223.604013
0.052800 -1709.187588 -3608.681005 -1040.272600  2882.068516  3278.231811  -438.484871
0.054000 -3662.998595 -2319.931285  1952.751649  3785.699207   876.767472 -3106.557334
0.055200 -3178.912851   694.078641  3641.234521  2043.946613 -2029.128181 -3510.495061
0.056400  -672.071881  2898.272117  2857.172684  -625.331047 -3252.747206 -1914.620761
0.057600  1679.425296  3189.967946   866.111673 -2458.165579 -2820.456583   200.395894
0.058800  2999.831540  2191.640819 -1280.053494 -3242.376530 -1282.540846  2280.789140
0.060000  3124.237057   125.645399 -3112.305022 -2555.176807  1205.805418  3532.830121
0.061200  1477.277657 -2456.481494 -3361.287389   -82.029937  3322.934021  2601.082068
0.062400 -1387.243516 -3642.983399 -1338.261773  2604.088452  3269.263566  -106.996962
0.063600 -3287.574899 -2369.960449  1433.707388  3408.681590  1173.501165 -2441.590360
0.064800 -2989.889751    84.883137  2961.404936  2212.877992 -1158.821067 -3083.042248
0.066000 -1286.300396  2035.344366  2888.312146   262.678297 -2669.474339 -2390.848924
0.067200   766.662161  3042.336102  1660.770267 -1791.147799 -3130.931683  -624.096662
0.068400  2719.552927  2752.988975  -651.390975 -3312.635682 -1885.391004  1934.680214
0.069600  3389.397823   593.996636 -2977.160100 -2826.104020   866.327932  3452.102208
0.070800  1705.302822 -2138.692582 -3267.529167  -337.985540  2938.614722  2527.377477
0.072000  -961.984987 -3174.613518 -1473.529113  1949.456149  2911.547144   354.465409
0.073200 -2547.122357 -2337.185023   648.984067  2817.233035  1611.981666 -1512.896492
0.074400 -2823.588781  -735.963001  2265.581670  2560.347888  -256.517935 -2823.313854
0.075600 -1984.503093  1332.953661  3082.639640  1034.685727 -2362.795540 -2865.928712
0.076800   214.032484  3072.432498  2119.132781 -1490.886253 -3264.346138  -965.691784
0.078000  2556.555272  2876.902153  -399.032619 -3138.665947 -1943.818308  1622.327680
0.079200  3124.280425   763.357610 -2475.880227 -2621.433779   437.281832  2888.236748
0.080400  1767.421573 -1451.505306 -2828.642503  -785.090261  2145.701283  2460.357822
0.081600  -177.247292 -2581.100040 -1868.746637  1083.723764  2726.468471  1092.467011
0.082800 -1875.655374 -2610.055327  -187.143268  2516.524964  2192.614061  -863.748728
0.084000 -2927.273813 -1391.238643  1904.032806  2890.877280   285.334853 -2733.172383
0.085200 -2383.414058   973.805821  3140.719285  1377.681571 -2115.042365 -2955.200432
0.086400  -100.247438  2844.344456  2215.403696 -1142.954279 -3026.380147 -1148.847401
0.087600  2081.106941  2674.929340     2.358831 -2583.201597 -1974.697460   979.476898
0.088800  2672.135648  1139.396041 -1706.691700 -2464.858083  -284.804928  2221.753181
0.090000  2076.435935  -562.690393 -2550.135258 -1487.373225  1403.498980  2645.847479
0.091200   679.341115 -2187.566263 -2428.412328   362.366402  2783.147659  1770.708941
0.092400 -1486.717072 -2934.227339  -723.066235  2426.095261  2560.014928  -516.065868
0.093600 -2956.530447 -1685.343849  1687.515935  2917.332775   508.360535 -2475.056445
0.094800 -2347.072820   652.074760  2779.493251  1463.842267 -1599.852658 -2639.454691
0.096000  -455.438762  2207.416233  2134.546248  -476.779898 -2459.062689 -1476.569431
0.097200  1257.759834  2463.537635   705.346269 -1900.397731 -2222.653236   135.871390
0.098400  2350.671578  1745.751125  -997.742246 -2585.003937 -1014.742169  1855.073390
0.099600  2488.668089    33.260690 -2511.237422 -1968.519154  1043.464517  2805.373660
0.100800  1079.747953 -2025.177455 -2619.662432    75.028634  2682.936182  1919.571292
0.102000 -1225.885916 -2807.216249  -886.387311  2099.497108  2438.076949  -238.755426
0.103200 -2548.503194 -1676.222746  1204.871149  2533.270402   761.616266 -1865.926980
0.104400 -2173.731789   118.720471  2207.239804  1626.608134  -878.536127 -2309.586193
0.105600  -976.398331  1523.756037  2209.131923   240.522955 -2051.593706 -1897.920809
0.106800   592.262808  2422.612543  1313.232868 -1472.493924 -2502.760536  -412.749211
0.108000  2243.930158  2134.713763  -662.055112 -2667.891108 -1340.497546  1689.237770
