##TITLE=1D-13C-1-5-5-328-110-"no"-"yes"
##JCAMP-DX=5.01 $$ Magritek Spinsolve SPA1903 2.0.4.4423
##DATA TYPE=NMR FID
##DATA CLASS=NTUPLES
##ORIGIN=SPA1903 at Magritek
##OWNER=Copyright (C) 2025 by Magritek
##LONGDATE=2025/02/12 11:26:36.576
##.OBSERVE FREQUENCY=15.4861775226891
##.OBSERVE NUCLEUS=^13C
##.DELAY=( 20,  5000)
##.ACQUISITION MODE=SIMULTANEOUS
##.FIELD= 1.5
##.AVERAGES= 1
##.DIGITISER RES=16
##.SHIFT REFERENCE=(INTERNAL, Water, 4096, 0)
##$REFERENCE_POINT= 796.520    $$ Referencing label
$$      Distance of the zero axis position (in Hz) from the last data
$$      point (right edge); positive values -> right edge is below 0 Hz
##SPECTROMETER/DATA SYSTEM=Magritek
##SAMPLE DESCRIPTION=solvent=Water
$$ Bruker specific parameters
$$ --------------------------
##$AUNMP=   <proc_1d_nosref>
##$INSTRUM= <Magritek>
##$SI=      8192
##$TD=      8192
##$TDeff=   8192
##$SW=      322.868600
##$BF1=     15.4861775226891
##$SF=      15.4844740431616
##$LB=      0
##$PHC0=    217.4
##$PHC1=    0.0
##$REVERSE= yes
$$ End of Bruker specific parameters
$$ ---------------------------------
##NTUPLES=NMR FID
##VAR_NAME=        TIME,            FID/REAL,            FID/IMAG, PAGE NUMBER
##SYMBOL=             X,                   R,                   I,           N
##VAR_TYPE= INDEPENDENT,           DEPENDENT,           DEPENDENT,        PAGE
##VAR_FORM=        AFFN,                AFFN,                AFFN,        AFFN
##VAR_DIM=         8192,                8192,                8192,           2
##UNITS=        SECONDS,     ARBITRARY UNITS,     ARBITRARY UNITS,            
##FIRST=              0,                   0,                   0,           1
##LAST=    1.638199e+00,  -0.159371310950107,   0.261031227613083,           2
##MIN=                0,    -3992.3787723512,   -3775.00767795396,           1
##MAX=     1.638199e+00,    3807.85369301831,    4126.03894754691,           2
##FACTOR=             1,                   1,                   1,           1
##PAGE=N=1
##DATA TABLE=(X++(R..R)), XYDATA
0.000000     0.000000  1664.279111 -3026.902329 -3851.278471   146.108356  3807.853693
0.001200  2791.897922 -1621.221140 -3992.378772 -1431.930891  2823.369318  3522.431098
0.002400   -62.718355 -3450.713765 -2619.182149  1319.602955  3616.556989  1539.963428
0.003600 -2377.274197 -3380.064359  -296.664297  3107.080956  2752.014711  -909.253021
0.004800 -3487.095394 -1863.412766  2060.139684  3519.329411   659.262123 -3049.625448
0.006000 -3022.362698   726.824728  3598.508456  2052.433290 -2031.039119 -3640.043381
0.007200  -754.457087  3082.580554  3112.924011  -723.492549 -3651.916443 -2034.359226
0.008400  2071.284837  3575.405907   673.170101 -3007.355022 -2954.086811   705.089203
0.009600  3454.293243  1939.822703 -1917.595161 -3359.036269  -694.467224  2747.453716
0.010800  2804.472539  -512.575430 -3167.240716 -1978.259957  1599.629531  3212.355165
0.012000   908.621955 -2473.512910 -2832.134871   217.622696  2999.265301  2174.350077
0.013200 -1311.909646 -3256.792553 -1203.636992  2378.220592  3039.177692   -55.819512
0.014400 -3077.281973 -2323.410805  1285.692262  3347.795529  1280.335703 -2414.101538
0.015600 -3110.881787    83.232150  3133.488455  2264.208060 -1367.081700 -3267.950468
0.016800 -1151.883028  2353.240255  2929.582134  -112.074520 -2954.548044 -2110.652397
0.018000  1258.328198  3002.976160  1116.622685 -2058.712487 -2726.788984  -104.378200
0.019200  2634.814607  2160.357372  -929.046252 -2857.526865 -1330.541946  1782.447315
0.020400  2755.380355   401.637612 -2480.503009 -2371.199715   671.255669  2928.323842
0.021600  1588.896512 -1721.608583 -2929.456592  -531.330993  2541.655596  2495.586408
0.022800  -648.827779 -3008.835129 -1637.020316  1765.242233  2963.062822   490.340866
0.024000 -2554.266219 -2423.833870   670.423926  2905.131204  1562.324337 -1675.535734
0.025200 -2823.093237  -502.795393  2388.917508  2319.370325  -553.865928 -2696.901292
0.026400 -1560.362744  1433.538920  2675.933675   679.820452 -2146.813876 -2361.051907
0.027600   306.526608  2587.102033  1711.026246 -1229.280437 -2681.984343  -889.580072
0.028800  2017.453253  2495.899156  -110.496706 -2616.801688 -1886.893546  1174.977663
0.030000  2782.538289   970.716018 -2041.349454 -2558.807778    93.055060  2654.801327
0.031200  1903.872054 -1221.920846 -2783.104683  -887.539435  2043.927817  2424.355296
0.032400  -144.301629 -2507.372365 -1769.630529  1134.929102  2584.502537   839.862894
0.033600 -1850.832692 -2223.139538    53.190220  2203.716193  1702.934987  -835.559321
0.034800 -2356.217377 -1019.817175  1539.326199  2220.033158   236.162325 -2022.069573
0.036000 -1868.096620   547.315972  2361.088250  1314.879896 -1393.470444 -2424.285589
0.037200  -450.092110  2107.177475  2079.499930  -524.552796 -2513.128572 -1392.884455
0.038400  1484.465325  2528.444376   403.462931 -2225.384426 -2056.320534   667.541144
0.039600  2516.056381  1229.541189 -1536.708328 -2359.033048  -269.969951  2102.077174
0.040800  1848.368125  -652.177917 -2284.012448 -1100.231688  1362.140923  2108.341290
0.042000   323.506437 -1801.052792 -1737.848442   402.209812  2048.409332  1215.974066
0.043200 -1085.355075 -2058.686656  -543.814110  1610.639170  1832.965821  -152.109917
0.044400 -1996.090184 -1436.149238   923.371796  2184.084044   739.179987 -1631.839282
0.045600 -1990.310782    94.846315  2084.261711  1526.473381  -947.691258 -2272.305930
0.046800  -745.083552  1721.412908  2012.731425  -190.553116 -2109.229039 -1415.963280
0.048000   996.356569  2167.746142   655.690406 -1657.480000 -1878.092587   218.975100
0.049200  1966.505114  1275.978749  -899.372424 -1938.691874  -652.579977  1399.620683
0.050400  1751.115356   -17.758968 -1739.655165 -1342.290707   647.247681  1839.849692
0.051600   846.135695 -1174.307690 -1824.616110  -255.703809  1671.415163  1569.088131
0.052800  -477.172673 -1967.562904 -1050.606772  1180.609512  1997.966112   340.657577
0.054000 -1787.444563 -1707.404013   530.853301  2114.988880  1039.767031 -1323.445360
0.055200 -2014.479736  -202.751138  1832.132051  1578.464996  -610.654064 -2010.674705
0.056400  -913.175883  1278.217558  1844.343718   153.041881 -1661.012447 -1418.643922
0.057600   504.866861  1767.676487   899.148864 -1020.709484 -1701.005982  -332.925956
0.058800  1423.522611  1455.066504  -256.948357 -1654.496383 -1075.617605   807.751095
0.060000  1751.162073   567.830679 -1354.909572 -1629.806195   119.998259  1729.475355
0.061200  1216.424087  -788.006473 -1843.647053  -644.724816  1385.949824  1724.713794
0.062400  -110.170387 -1813.386739 -1232.312374   860.803792  1847.817760   564.991873
0.063600 -1382.986318 -1631.287592   128.770773  1724.705137  1167.960514  -809.882900
0.064800 -1733.913311  -536.318983  1259.711008  1512.682001   -49.467567 -1546.494404
0.066000 -1157.566967   640.351568  1632.354371   632.134092 -1100.423619 -1494.709914
0.067200  -111.910191  1419.513032  1261.066299  -458.102645 -1654.835564  -812.560283
0.068400  1050.454035  1619.873995   198.353059 -1471.863561 -1347.458829   448.056199
0.069600  1720.507639   852.736795 -1093.447003 -1673.110902  -155.826977  1538.604465
0.070800  1301.992740  -538.753745 -1681.179692  -731.291626  1097.528549  1534.913725
0.072000    82.138903 -1423.560497 -1147.057834   497.642329  1479.892718   663.485635
0.073200  -909.148342 -1361.275113  -190.539081  1189.034023  1137.173434  -278.344134
0.074400 -1353.316929  -793.880284   712.560267  1367.350920   393.941266 -1075.942099
0.075600 -1283.864284    90.785027  1412.389937  1001.271769  -685.630686 -1531.775590
0.076800  -475.198999  1173.554566  1384.306728  -126.007665 -1507.799965 -1015.070437
0.078000   769.118842  1581.813913   399.809074 -1247.728578 -1313.462841   224.472394
0.079200  1459.773377   893.243310  -768.549915 -1457.551577  -330.087500  1160.451012
0.080400  1174.459763  -210.264845 -1280.624341  -813.285725   600.476707  1295.078721
0.081600   428.833427  -961.472723 -1171.226165    37.236922  1174.927055   902.122944
0.082800  -437.153657 -1269.378644  -590.417973   837.944228  1277.633436   135.835535
0.084000 -1196.474555 -1065.418062   378.422987  1376.346127   689.920444  -877.237457
0.085200 -1386.783693  -157.495717  1291.669854  1112.792590  -462.254950 -1441.946190
0.086400  -624.669922   949.946479  1331.280184    62.027699 -1268.220357 -1009.852321
0.087600   488.939508  1339.681881   522.153190  -887.393193 -1164.504778   -45.816978
0.088800  1074.184284   888.326287  -332.173523 -1131.475972  -583.094355   650.178228
0.090000  1099.725316   242.007545  -896.184286  -974.052985   102.229955  1082.141341
0.091200   788.782502  -492.513804 -1224.163798  -451.343214   913.368941  1169.336003
0.092400   -29.030773 -1217.273628  -917.147297   546.690476  1368.127738   468.849790
0.093600 -1048.876556 -1232.981236   148.794629  1312.217757   820.093889  -663.126425
0.094800 -1303.518384  -339.535965  1032.923472  1104.086557  -202.354111 -1209.991588
0.096000  -694.320157   622.686753  1126.189174   289.383486  -856.346394  -964.962680
0.097200    81.086784  1018.485196   709.322298  -439.076406 -1030.752090  -403.554911
0.098400   687.914208   978.927551    98.281980  -939.856751  -848.604126   304.363836
0.099600  1091.625166   538.684220  -674.008998 -1076.475728  -166.651573   978.331420
0.100800   937.393184  -293.064675 -1179.210612  -579.892568   748.492127  1126.978767
0.102000   103.483865 -1032.169680  -885.479368   355.916817  1145.461762   503.212734
0.103200  -751.604841 -1046.538127   -45.658659   971.323601   771.904786  -344.275608
0.104400 -1008.139628  -448.400514   628.162051   928.326432   112.066424  -822.498413
0.105600  -754.875526   209.238637   909.631386   524.061788  -479.366682  -923.958272
0.106800  -267.550566   746.545202   877.405595   -86.004170  -968.907514  -655.316111
0.108000   474.288737  1031.679804   322.294344  -810.762523  -959.128413   109.517984
