##TITLE=1D-13C-1-2-5-328-110-"no"-"yes"
##JCAMP-DX=5.01 $$ Magritek Spinsolve SPA1903 2.0.4.4423
##DATA TYPE=NMR FID
##DATA CLASS=NTUPLES
##ORIGIN=SPA1903 at Magritek
##OWNER=Copyright (C) 2025 by Magritek
##LONGDATE=2025/03/17 11:57:47.056
##.OBSERVE FREQUENCY=15.4860999900848
##.OBSERVE NUCLEUS=^13C
##.DELAY=( 20,  2000)
##.ACQUISITION MODE=SIMULTANEOUS
##.FIELD= 1.5
##.AVERAGES= 1
##.DIGITISER RES=16
##.SHIFT REFERENCE=(INTERNAL, Water, 4096, 0)
##$REFERENCE_POINT= 796.529    $$ Referencing label
$$      Distance of the zero axis position (in Hz) from the last data
$$      point (right edge); positive values -> right edge is below 0 Hz
##SPECTROMETER/DATA SYSTEM=Magritek
##SAMPLE DESCRIPTION=solvent=Water
$$ Bruker specific parameters
$$ --------------------------
##$AUNMP=   <proc_1d_nosref>
##$INSTRUM= <Magritek>
##$SI=      8192
##$TD=      8192
##$TDeff=   8192
##$SW=      322.870200
##$BF1=     15.4860999900848
##$SF=      15.4843965190859
##$LB=      0
##$PHC0=    217.2
##$PHC1=    0.0
##$REVERSE= yes
$$ End of Bruker specific parameters
$$ ---------------------------------
##NTUPLES=NMR FID
##VAR_NAME=        TIME,            FID/REAL,            FID/IMAG, PAGE NUMBER
##SYMBOL=             X,                   R,                   I,           N
##VAR_TYPE= INDEPENDENT,           DEPENDENT,           DEPENDENT,        PAGE
##VAR_FORM=        AFFN,                AFFN,                AFFN,        AFFN
##VAR_DIM=         8192,                8192,                8192,           2
##UNITS=        SECONDS,     ARBITRARY UNITS,     ARBITRARY UNITS,            
##FIRST=              0,                   0,                   0,           1
##LAST=    1.638199e+00,    0.56428050428417,  -0.844751336574306,           2
##MIN=                0,   -8301.84540489389,   -7907.35637365269,           1
##MAX=     1.638199e+00,    8009.89390179746,    8623.53878371053,           2
##FACTOR=             1,                   1,                   1,           1
##PAGE=N=1
##DATA TABLE=(X++(R..R)), XYDATA
0.000000     0.000000  3460.956608 -6325.598778 -8046.438689   364.297503  8009.893902
0.001200  5738.162814 -3529.045942 -8301.845405 -2817.128536  5963.520772  7243.946708
0.002400  -251.058306 -7209.292779 -5356.320314  2846.267091  7517.736546  3111.027598
0.003600 -5004.064665 -7045.888943  -588.104348  6567.564459  5797.379586 -1989.987280
0.004800 -7453.265165 -3907.114654  4510.510582  7534.234015  1285.401480 -6676.508117
0.006000 -6475.166553  1773.877588  7920.561130  4287.364159 -4726.643300 -7935.394769
0.007200 -1266.814733  7011.518938  6561.843390 -2069.581941 -8086.445776 -4019.114425
0.008400  4979.067528  7697.381708   892.100810 -6886.335257 -6081.495667  2153.450309
0.009600  7584.107007  3653.718586 -4635.707677 -7095.378333  -898.218580  6216.070485
0.010800  5687.269075 -1647.878290 -6877.095413 -3791.853469  3831.843676  6786.753369
0.012000  1524.306438 -5569.950460 -5923.069276   871.636815  6652.862579  4422.874197
0.013200 -3259.820499 -7113.256148 -2240.789864  5527.193416  6564.232314  -553.002352
0.014400 -7067.454313 -4874.020356  3422.717342  7568.391336  2289.041733 -5925.825204
0.015600 -6747.125398   893.440102  7353.774628  4583.670786 -3812.906899 -7363.308316
0.016800 -1797.597375  5874.077284  6191.352982 -1096.988598 -6850.734045 -4090.694586
0.018000  3523.680969  6639.697445  1733.551827 -5109.098601 -5715.329777   526.099225
0.019200  6067.807850  4279.152944 -2646.643965 -6361.633351 -2424.236954  4459.086665
0.020400  6032.558192   278.403292 -5951.490092 -4993.673567  2182.883316  6809.935170
0.021600  3056.595093 -4568.483515 -6629.259614  -446.854737  6386.101252  5318.114588
0.022800 -2413.963715 -7187.067021 -2982.363847  4950.408403  6675.532429    85.156689
0.024000 -6530.572476 -4980.614450  2681.095310  6908.070530  2578.134634 -4813.445395
0.025200 -6164.646543    25.230519  6043.052739  4596.446430 -2367.740231 -6300.249062
0.026400 -2572.099757  4162.097455  5791.980745   453.870207 -5393.083826 -4724.667560
0.027600  1656.317927  6028.264412  3105.586836 -3579.715519 -5971.717916 -1126.660748
0.028800  5188.188645  5261.706852 -1173.820879 -6308.161541 -3686.177664  3566.374444
0.030000  6472.238575  1371.097223 -5506.869101 -5617.632834  1299.692287  6675.686549
0.031200  3708.039487 -3923.138145 -6608.672676 -1025.271287  5744.293492  5315.843887
0.032400 -1647.150364 -6469.612148 -3242.350836  3907.774756  6092.808004   768.200457
0.033600 -5298.902079 -4756.153045  1448.321612  5729.250484  3067.982930 -3205.249029
0.034800 -5551.137002 -1210.087961  4535.803096  4797.060798  -687.998418 -5349.008498
0.036000 -3615.462803  2527.564883  5726.438165  1965.378206 -4338.201710 -5416.670805
0.037200   229.725037  5709.004723  4171.767468 -2608.433367 -6247.693096 -2107.775978
0.038400  4729.637297  5692.828203  -492.120767 -6063.607043 -4022.397765  3011.705044
0.039600  6219.526978  1668.761391 -4858.687971 -5262.773911   804.656831  5741.652530
0.040800  3541.418329 -2903.577015 -5639.315357 -1466.429738  4350.636562  4772.106455
0.042000  -527.397293 -5068.033963 -3462.378188  2261.534514  5220.642323  1888.756053
0.043200 -3721.818422 -4832.344421  -102.929917  4770.306916  3892.362799 -1738.668819
0.044400 -5353.092219 -2462.588608  3550.661938  5290.515598   465.874946 -5012.766398
0.045600 -4315.377209  1758.117580  5723.469420  2613.149133 -3807.325878 -5536.649102
0.046800  -324.339991  5318.833684  4278.018074 -2086.008504 -5777.219369 -2272.955345
0.048000  3968.069360  5223.333250    24.059646 -5122.916612 -3860.352344  2099.621775
0.049200  5304.243497  1983.111552 -3591.448852 -4698.920229  -171.966055  4464.806045
0.050400  3678.521529 -1507.178422 -4817.697062 -2320.814543  2922.721111  4656.605605
0.051600   819.261916 -4061.959669 -4125.147891   870.287650  4934.213384  2994.635417
0.052800 -2721.170261 -5195.991125 -1249.719368  4350.233892  4630.625198  -895.644694
0.054000 -5402.933324 -3168.530462  3088.267639  5504.068540  1010.462032 -4723.373416
0.055200 -4502.801639  1311.107444  5404.265016  2745.402337 -3240.707786 -5098.046384
0.056400  -664.982895  4446.387135  4002.921481 -1257.539164 -4834.248420 -2505.896911
0.057600  2746.037697  4587.051769   928.749918 -3768.590724 -3928.286360   622.514640
0.058800  4428.570450  2900.695467 -2136.249280 -4632.561014 -1540.852663  3488.183861
0.060000  4369.731427  -109.233434 -4587.285026 -3466.966750  2017.106949  5079.232942
0.061200  1847.326935 -3731.704636 -4726.364796   164.420834  4910.230450  3560.310358
0.062400 -2275.198927 -5277.914712 -1657.615079  3991.787379  4601.562744  -474.658262
0.063600 -4880.462394 -3216.472825  2383.123809  4956.755631  1387.043994 -3787.969256
0.064800 -4181.217499   487.706279  4404.294182  2931.821315 -2002.222686 -4439.162016
0.066000 -1521.039125  3180.720840  4002.813880    10.254189 -3947.748926 -3160.626914
0.067200  1407.599367  4334.235343  2065.360323 -2780.542085 -4333.818926  -561.984700
0.068400  4002.944985  3705.578626 -1206.865071 -4728.136639 -2420.415418  2977.872601
0.069600  4753.683309   567.150117 -4392.388992 -3848.636274  1540.550508  4980.458389
0.070800  2166.880709 -3321.931230 -4595.841113  -149.779953  4387.232168  3413.295705
0.072000 -1722.530019 -4593.516948 -1773.972206  3093.037598  4046.232708   117.114436
0.073200 -3805.359731 -3073.724591  1281.528578  4014.626788  1936.163299 -2432.550754
0.074400 -3876.584080  -668.851709  3356.235321  3372.681676  -694.025614 -3996.650331
0.075600 -2494.256612  2122.917871  4251.699339  1134.740458 -3491.437410 -3851.916156
0.076800   604.016837  4379.313461  2728.259257 -2355.348583 -4552.644100 -1056.071237
0.078000  3806.560708  3898.530479  -902.458334 -4520.106451 -2459.962615  2596.639752
0.079200  4359.746433   733.680980 -3726.624990 -3526.032817   993.502147  4176.749054
0.080400  2173.073402 -2388.235409 -3914.993013  -717.771430  3241.793332  3251.254148
0.081600  -626.857408 -3706.875387 -2291.856202  1861.022650  3736.278448  1140.783509
0.082800 -2811.369029 -3425.476459    94.515502  3584.845472  2770.545693 -1494.498400
0.084000 -4014.812740 -1611.959487  2847.642636  3862.594291    87.214476 -3893.853388
0.085200 -3087.079011  1627.369761  4379.095840  1635.062104 -3182.737722 -4004.934372
0.086400   190.941129  4109.980907  2864.758497 -1924.172784 -4244.062016 -1269.311092
0.087600  3198.349831  3614.136899  -394.087506 -3773.111052 -2470.090492  1743.198120
0.088800  3712.127765  1196.019530 -2656.599847 -3254.385895     7.304549  3204.377393
0.090000  2564.853166 -1124.227896 -3485.274568 -1684.082174  2169.720889  3479.327403
0.091200   590.368192 -3122.729067 -3103.430996   791.941448  3834.132662  2155.545586
0.092400 -2274.222612 -3942.895198  -695.721803  3482.551817  3347.715753 -1011.064163
0.093600 -4144.180079 -2062.477522  2607.456849  3960.693968   355.533787 -3615.092720
0.094800 -3037.110943  1257.802570  3909.123208  1708.962462 -2527.511588 -3554.517326
0.096000  -219.725220  3250.574267  2689.973222 -1041.636417 -3417.945157 -1681.304759
0.097200  2024.879615  3267.747993   574.167988 -2784.011120 -2776.283038   550.014842
0.098400  3221.299990  2043.510805 -1627.840369 -3409.919860 -1043.407824  2685.500060
0.099600  3173.454696  -271.555403 -3449.760500 -2399.554161  1664.869223  3742.904115
0.100800  1173.776337 -2931.664108 -3405.066535   415.324722  3731.656401  2357.990144
0.102000 -1968.768836 -3796.533240  -875.883663  3097.867685  3162.081911  -692.373678
0.103200 -3598.576964 -1994.172862  2001.235858  3413.463375   638.873303 -2800.157234
0.104400 -2740.542993   586.745088  3093.966779  1849.510316 -1548.827180 -3038.737936
0.105600  -899.488268  2285.473421  2733.813062   -70.725819 -2815.163361 -2209.967985
0.106800  1090.847868  3162.296886  1412.017103 -2163.009602 -3170.101281  -233.213414
0.108000  3088.695668  2609.813123 -1165.910511 -3556.026230 -1504.948061  2490.723213
