##TITLE=1D-13C-256-2-90-328-110-"no"-"yes"
##JCAMP-DX=5.01 $$ Magritek Spinsolve SPA1903 2.0.4.4423
##DATA TYPE=NMR FID
##DATA CLASS=NTUPLES
##ORIGIN=SPA1903 at Magritek
##OWNER=Copyright (C) 2025 by Magritek
##LONGDATE=2025/03/17 12:05:45.163
##.OBSERVE FREQUENCY=15.4860999900848
##.OBSERVE NUCLEUS=^13C
##.DELAY=( 20,  2000)
##.ACQUISITION MODE=SIMULTANEOUS
##.FIELD= 1.5
##.AVERAGES= 256
##.DIGITISER RES=16
##.SHIFT REFERENCE=(INTERNAL, Water, 4096, 0)
##$REFERENCE_POINT= 796.529    $$ Referencing label
$$      Distance of the zero axis position (in Hz) from the last data
$$      point (right edge); positive values -> right edge is below 0 Hz
##SPECTROMETER/DATA SYSTEM=Magritek
##SAMPLE DESCRIPTION=solvent=Water
$$ Bruker specific parameters
$$ --------------------------
##$AUNMP=   <proc_1d_nosref>
##$INSTRUM= <Magritek>
##$SI=      8192
##$TD=      8192
##$TDeff=   8192
##$SW=      322.870200
##$BF1=     15.4860999900848
##$SF=      15.4843965190859
##$LB=      0
##$PHC0=    231.6
##$PHC1=    0.0
##$REVERSE= yes
$$ End of Bruker specific parameters
$$ ---------------------------------
##NTUPLES=NMR FID
##VAR_NAME=        TIME,            FID/REAL,            FID/IMAG, PAGE NUMBER
##SYMBOL=             X,                   R,                   I,           N
##VAR_TYPE= INDEPENDENT,           DEPENDENT,           DEPENDENT,        PAGE
##VAR_FORM=        AFFN,                AFFN,                AFFN,        AFFN
##VAR_DIM=         8192,                8192,                8192,           2
##UNITS=        SECONDS,     ARBITRARY UNITS,     ARBITRARY UNITS,            
##FIRST=              0,                   0,                   0,           1
##LAST=    1.638199e+00,-1.5458122244527e-03,-1.8923409376070e-03,           2
##MIN=                0,   -3.39833663648158,   -3.39294322138429,           1
##MAX=     1.638199e+00,    3.62605754436357,    3.45183933791094,           2
##FACTOR=             1,                   1,                   1,           1
##PAGE=N=1
##DATA TABLE=(X++(R..R)), XYDATA
0.000000     0.000000     0.000000    -2.223746    -1.541300     1.265468     3.563096
0.001200     2.054351    -2.035276    -3.210608    -1.215807     1.930534     2.160217
0.002400     0.315823    -2.638358    -1.993093     1.071022     1.676504     0.039371
0.003600    -2.422307    -1.487143     0.258531     2.451357     1.106169    -2.278681
0.004800    -3.398337    -1.003656     1.105184     1.532992    -0.101426    -2.108806
0.006000    -3.012233     1.406168     2.980204     0.286428    -0.691974    -3.030027
0.007200    -1.360514     2.576960     2.867315    -0.392123    -2.763037    -3.128924
0.008400     1.766903     2.007279    -0.922269    -2.767971    -2.031476     0.483859
0.009600     2.704958     1.450202    -1.395041    -2.612763    -0.666317     1.781338
0.010800     0.642776     0.140765    -2.708558    -2.509377     1.305199     1.527477
0.012000     0.249686    -1.998239    -1.860819    -0.868510     2.140089     1.841445
0.013200     0.771500    -1.264705    -1.946181     0.169636     2.243642     1.644170
0.014400    -0.714267    -2.056953    -0.450213     2.384399     2.035696    -0.688068
0.015600    -2.498272    -0.900800     2.348734     2.549448    -0.020291    -2.788503
0.016800    -2.539182     1.018661     2.252608     0.611699    -2.100292    -2.533235
0.018000     1.140762     2.216268     1.922749    -1.302606    -1.729792     0.429450
0.019200     1.915002     2.489812     0.222386    -2.212294    -2.150741    -0.523169
0.020400     1.089549     0.175248    -2.878936    -2.068488     0.797207     2.150572
0.021600     3.383049     0.171221    -2.043122    -0.375028     0.916074     2.990869
0.022800     1.711776    -1.666448    -1.029049    -1.098516     3.234538     3.357411
0.024000    -0.784526    -2.987853    -1.555436     1.117207     2.474086     0.502031
0.025200    -1.660330    -1.004225     1.292685     1.809057     0.941794    -0.877279
0.026400    -1.386384    -0.756027     1.904236     3.035262    -0.080927    -1.851046
0.027600    -0.424254     0.157203     0.913198     0.728433    -1.618422    -2.390213
0.028800    -1.054455     1.899750     0.887871    -0.115436    -1.296025    -1.173621
0.030000     3.133400     3.314671     0.222470    -2.244736    -1.848423     0.293380
0.031200     1.963864     1.703890    -1.059149    -2.802115    -0.303467     1.501597
0.032400     1.956841    -1.746138    -2.950285    -1.809603     1.085485     2.665193
0.033600     0.830811    -2.311190    -2.416359     0.819620     2.710627     1.690363
0.034800    -0.650312    -1.963007    -0.616601     1.863680     2.351767    -0.250101
0.036000    -1.156292    -1.740564     0.381909     1.672647     1.509360    -0.885603
0.037200    -1.512572    -0.397440     2.023911     1.821929    -0.407485    -1.779963
0.038400    -1.590833    -0.053450     1.586127     0.062269    -2.666814    -1.745313
0.039600     0.890694     3.026811     2.440132     0.028117    -2.070019    -1.456458
0.040800     0.980500     1.090524    -1.179977    -2.214809    -0.215296     0.292901
0.042000     0.991595     0.746324    -1.125020    -2.264690     0.063399     2.159506
0.043200     1.636715    -0.688359    -2.116466    -1.950267     1.502622     3.626058
0.044400     0.913138    -1.120545    -0.719669     0.947785     1.779299     0.992676
0.045600     0.365305    -1.571009    -0.863185     0.694096     1.041309    -0.207617
0.046800    -2.485422    -2.227007     0.267345     1.120907     0.230528    -2.473138
0.048000    -1.377550     1.232854     2.228961     1.980523    -0.566148    -1.163056
0.049200    -1.579224     1.620662     1.639026    -0.730756    -0.950704    -0.506717
0.050400     0.565264     1.464766     0.878666    -0.311486    -1.214897    -1.011167
0.051600     1.850900     2.215030    -0.769460    -2.001751    -0.730407     1.257333
0.052800     1.783095     0.497460    -0.840566    -1.810319    -0.813329     1.387189
0.054000     0.799315    -0.834008    -2.599515    -1.754662     0.649155     0.447759
0.055200    -0.373849    -0.628059    -0.227111     0.531951     1.577437     0.930044
0.056400    -0.480175    -1.094651     0.511423     1.407855     0.929043     0.942525
0.057600    -0.985819    -1.559821     0.385088     1.802377     0.838040    -1.278826
0.058800    -1.810180    -0.364225     0.865666     1.649581    -0.430561    -1.252231
0.060000    -0.698090     1.256217     1.605768     0.878324    -1.811563    -2.225126
0.061200     1.044671     3.209953     1.095881    -1.033498    -2.769116    -0.078781
0.062400     2.538405     0.943889    -0.495692    -1.999103    -1.129730    -0.107879
0.063600     2.641234     1.224994    -2.072671    -1.283025    -0.297269     1.231437
0.064800    -0.230894    -2.008656    -1.753824    -0.278224     1.596950     2.205638
0.066000     0.190377    -1.927296    -2.063305    -0.081398     1.981132     0.659576
0.067200    -1.504612    -2.341060    -1.217370     1.243181     1.890547    -0.464862
0.068400    -2.593036    -0.848628     1.212006     2.284609     0.648335    -1.061317
0.069600    -1.841324     0.869570     1.724465     0.897409    -0.792243    -0.767165
0.070800    -0.293859     1.398891     1.947734    -0.212892    -1.516009    -1.293924
0.072000     0.718821     2.107005     1.182060    -1.137657    -1.097322     0.670972
0.073200     2.097029     2.583591    -0.075493    -1.830030    -1.220816    -0.495782
0.074400     1.122873    -0.513549    -1.530855    -1.105924     0.727208     2.258497
0.075600     1.493927    -0.513655    -1.950390    -1.013607     0.763892     1.267893
0.076800    -1.011864    -1.924601    -0.650606     0.914418     1.367341    -0.519424
0.078000    -0.448690    -0.935337    -0.640359     1.240380     1.263886    -0.837153
0.079200    -2.028978    -0.675758     1.149288     0.446474     0.289437    -1.179889
0.080400    -2.098761     0.847602     0.854966     0.482981    -0.204083    -1.683743
0.081600    -0.293618     1.295422     0.492877    -1.325567    -1.856114    -1.310131
0.082800     0.249667     1.505252     0.449046    -1.182868    -0.721346     0.167444
0.084000     1.988773     0.602741    -1.148509    -1.645189    -0.727384     0.267378
0.085200     1.123589     1.112615    -1.121605    -1.539277     0.331822     2.969806
0.086400     0.758101    -0.700483    -1.346858    -0.880760     1.058065     0.607068
0.087600    -0.137889    -1.886848    -0.696769     0.852166     1.863318    -0.268645
0.088800    -1.180814    -0.951713    -0.280385     1.303901     1.714799    -0.330484
0.090000    -1.802427    -1.110636     0.605251     0.816267    -0.523391    -2.254648
0.091200    -0.120209     1.180244     0.582770     1.073966     1.148056    -0.085241
0.092400    -0.262586     1.245443     0.993870    -0.220361    -1.517105    -0.879866
0.093600     1.521101     1.661348     0.321118    -0.823803    -0.882755     0.017791
0.094800     1.056638     0.813187    -0.927791    -1.802488    -0.583130     1.129369
0.096000     1.452712    -0.001075    -0.981789    -0.651362    -0.308052     0.307190
0.097200     1.270882     0.166452    -1.152036    -0.122347     0.346862     0.623845
0.098400     0.116723    -1.439366    -1.147365     0.454321     1.141841    -0.182337
0.099600    -2.036754    -1.297217     0.149034     0.526647    -0.144430    -1.808976
0.100800    -2.113529    -1.191886     1.433134     2.122973    -0.491709    -0.169802
0.102000    -0.767075    -0.457224     1.467686    -0.037129     0.135151     0.237040
0.103200    -0.127584     1.290235     1.233285    -0.060279    -0.837673     0.174101
0.104400     0.612810     0.120414    -0.269493    -0.314877    -0.296981     0.333127
0.105600     0.871195     0.865686    -0.683675    -1.314006    -0.225298     1.028536
0.106800     1.352645     0.644406    -0.861939    -1.611877    -0.450407     1.142081
0.108000     0.382488    -0.112848    -0.483492    -0.100918     1.132779     0.525619
