##TITLE=1D-13C-1-5-5-328-110-"no"-"yes"
##JCAMP-DX=5.01 $$ Magritek Spinsolve SPA1903 2.0.4.4423
##DATA TYPE=NMR FID
##DATA CLASS=NTUPLES
##ORIGIN=SPA1903 at Magritek
##OWNER=Copyright (C) 2025 by Magritek
##LONGDATE=2025/02/12 14:32:06.982
##.OBSERVE FREQUENCY=15.4861775226891
##.OBSERVE NUCLEUS=^13C
##.DELAY=( 20,  5000)
##.ACQUISITION MODE=SIMULTANEOUS
##.FIELD= 1.5
##.AVERAGES= 1
##.DIGITISER RES=16
##.SHIFT REFERENCE=(INTERNAL, Water, 4096, 0)
##$REFERENCE_POINT= 796.520    $$ Referencing label
$$      Distance of the zero axis position (in Hz) from the last data
$$      point (right edge); positive values -> right edge is below 0 Hz
##SPECTROMETER/DATA SYSTEM=Magritek
##SAMPLE DESCRIPTION=solvent=Water
$$ Bruker specific parameters
$$ --------------------------
##$AUNMP=   <proc_1d_nosref>
##$INSTRUM= <Magritek>
##$SI=      8192
##$TD=      8192
##$TDeff=   8192
##$SW=      322.868600
##$BF1=     15.4861775226891
##$SF=      15.4844740431616
##$LB=      0
##$PHC0=    217.7
##$PHC1=    0.0
##$REVERSE= yes
$$ End of Bruker specific parameters
$$ ---------------------------------
##NTUPLES=NMR FID
##VAR_NAME=        TIME,            FID/REAL,            FID/IMAG, PAGE NUMBER
##SYMBOL=             X,                   R,                   I,           N
##VAR_TYPE= INDEPENDENT,           DEPENDENT,           DEPENDENT,        PAGE
##VAR_FORM=        AFFN,                AFFN,                AFFN,        AFFN
##VAR_DIM=         8192,                8192,                8192,           2
##UNITS=        SECONDS,     ARBITRARY UNITS,     ARBITRARY UNITS,            
##FIRST=              0,                   0,                   0,           1
##LAST=    1.638199e+00,   0.119326738058197,   0.201971706794928,           2
##MIN=                0,   -207.780297110442,   -204.120304773078,           1
##MAX=     1.638199e+00,    199.686768762686,    212.249350059254,           2
##FACTOR=             1,                   1,                   1,           1
##PAGE=N=1
##DATA TABLE=(X++(R..R)), XYDATA
0.000000     0.000000    87.794274  -153.943268  -201.425171     2.676250   197.961751
0.001200   146.717884   -81.056628  -207.780297   -77.411512   141.625168   186.199370
0.002400     5.834239  -176.349176  -142.810557    62.085980   190.289008    87.807793
0.003600  -119.399738  -181.110228   -26.726553   159.564735   153.271007   -40.326841
0.004800  -187.105173  -110.383254   101.322642   193.429438    45.746230  -158.448721
0.006000  -172.621848    29.155996   199.105720   122.828566  -103.174938  -202.487708
0.007200   -51.634263   163.629013   178.358423   -29.501871  -200.071701  -120.003939
0.008400   102.657626   199.686769    51.025778  -158.472550  -168.344159    27.153490
0.009600   192.263173   119.368481   -96.809381  -189.490296   -53.869505   145.292905
0.010800   165.589373   -13.326360  -172.722935  -120.576308    77.041738   182.477017
0.012000    67.074399  -128.746448  -172.198910    -6.377294   167.747630   139.135944
0.013200   -57.505976  -188.392227   -88.587725   124.348673   186.171143    18.039566
0.014400  -173.576801  -151.012019    56.429128   198.324512    97.126437  -125.370939
0.015600  -192.429303   -18.222176   177.460884   149.844451   -60.655138  -195.418201
0.016800   -88.793068   121.775047   180.322031    16.190717  -166.531379  -142.257983
0.018000    49.609083   179.017087    89.707332  -106.779524  -172.672473   -28.952866
0.019200   146.768106   144.456950   -30.150633  -171.463299  -106.181316    87.443198
0.020400   176.093420    51.328485  -141.283753  -162.084755    13.714110   177.028470
0.021600   126.552765   -84.252294  -190.819290   -61.402025   145.202658   174.672921
0.022800   -14.516740  -184.372396  -128.626253    85.200491   190.529956    58.590307
0.024000  -144.807912  -168.196675    12.344782   174.525323   122.691673   -79.119946
0.025200  -183.892675   -57.932559   135.021391   162.545292    -3.100289  -164.342580
0.026400  -124.130478    64.364740   176.392634    73.966120  -114.994499  -161.599938
0.027600   -15.648193   151.094393   134.148711   -48.373521  -173.766526   -90.822971
0.028800   106.994179   173.958126    26.561740  -156.602230  -147.536172    44.333076
0.030000   182.126735    98.676005  -106.196899  -185.272227   -32.174571   160.973068
0.031200   153.644090   -42.905445  -186.457008   -99.613247   107.420552   178.719431
0.032400    29.382383  -155.587777  -146.612057    39.317191   173.434942    93.868562
0.033600   -96.168690  -167.700557   -37.382292   133.778063   142.424866   -19.406362
0.034800  -160.411406  -106.546336    77.364365   165.381511    55.302171  -121.056218
0.036000  -152.472929     0.658979   158.293825   121.786610   -66.693010  -175.985110
0.037200   -70.736206   124.608400   168.072153     0.397027  -167.364153  -131.224046
0.038400    68.750218   183.035586    70.317415  -130.347567  -165.766315     4.022377
0.039600   169.637016   128.407490   -66.723687  -173.399741   -64.453349   123.930924
0.040800   156.740803     2.670906  -151.216452  -118.638037    54.553195   162.028452
0.042000    70.309916  -105.794639  -150.825434   -16.973773   140.681009   129.639785
0.043200   -37.353622  -157.106622   -88.055001    90.847642   160.344681    33.009934
0.044400  -137.255523  -142.840996    26.387836   166.406139   100.407696   -90.580565
0.045600  -172.974299   -41.907504   141.019476   147.817503   -24.639699  -173.215100
0.046800  -104.623008    94.812144   172.726745    41.015628  -139.196861  -146.859379
0.048000    27.392581   161.867004    97.518846   -85.999954  -162.295891   -39.577512
0.049200   128.730111   138.117277   -18.359303  -147.245187   -98.414458    69.686653
0.050400   156.264768    53.186722  -112.202788  -142.084043    -0.627359   143.234349
0.051600   117.191090   -52.985500  -159.820704   -69.374224   108.682758   155.092807
0.052800    10.464907  -149.612273  -128.045341    53.420664   169.748815    79.717322
0.054000  -112.631132  -162.900194   -11.018304   151.225408   126.676260   -54.998642
0.055200  -168.473722   -71.580742   112.669994   153.843061     8.882360  -144.377267
0.056400  -119.112599    48.368926   155.653925    75.643880   -97.319125  -148.057364
0.057600   -19.193823   130.246314   122.624018   -31.110466  -147.300787   -88.220856
0.058800    79.011172   149.886580    39.046472  -120.372939  -135.431904    17.035725
0.060000   152.313371   104.687883   -73.916189  -162.515672   -48.506991   127.194249
0.061200   146.118749   -10.841924  -157.329375  -110.175366    76.357850   166.907078
0.062400    48.351945  -125.906539  -144.677095    15.331597   154.180858   102.284697
0.063600   -74.119055  -158.741175   -48.875111   118.689789   139.692725    -9.557673
0.064800  -145.016470  -100.658860    61.966185   149.980339    57.441288  -102.679906
0.066000  -138.876838    -7.434606   132.787654   111.709682   -45.997701  -146.549068
0.067200   -71.627433    92.329334   146.296731    21.436696  -134.272974  -125.084738
0.068400    38.021817   154.832579    81.032820   -96.066517  -153.955911   -24.249355
0.069600   138.166942   128.414448   -37.600870  -157.864034   -80.856544    97.976224
0.070800   151.715267    23.494734  -132.440918  -123.977137    38.071993   150.700230
0.072000    77.411429   -86.103219  -142.618085   -25.783277   120.674762   118.295271
0.073200   -22.990995  -138.207500   -86.786492    68.899346   140.536201    43.146552
0.074400  -109.679351  -128.828710     7.322421   137.544258   101.573851   -58.138966
0.075600  -147.604626   -56.762751   106.807902   141.772067     0.889702  -142.680365
0.076800  -108.382663    62.225502   155.951768    57.182689  -111.430325  -141.342695
0.078000     6.180727   144.440487   104.212145   -65.425146  -152.165009   -52.771427
0.079200   105.823163   133.038951    -0.854862  -134.646600  -102.767638    52.907512
0.080400   139.584788    57.924599   -91.675622  -131.369636    -9.183094   123.472746
0.081600   108.655680   -35.674439  -137.274266   -71.636815    82.526534   138.120442
0.082800    26.856010  -117.340295  -120.241912    25.892249   143.501945    83.744455
0.084000   -79.241144  -145.489900   -33.949071   121.633264   126.500151   -24.661755
0.085200  -145.589952   -88.302266    80.245829   149.787194    32.708212  -121.297536
0.086400  -126.139849    26.346382   144.531209    82.441500   -75.986937  -141.629616
0.087600   -34.047448   112.773016   119.288600   -16.998594  -130.565727   -83.445464
0.088800    64.666589   133.387882    43.987671  -100.203262  -123.007953     1.044321
0.090000   123.921278    98.524685   -48.206445  -137.753414   -58.017550    91.541336
0.091200   133.167847    11.888316  -127.212191  -110.268477    45.757025   145.974606
0.092400    65.878496   -93.691016  -135.912694    -9.814085   130.358887   111.485657
0.093600   -46.439067  -146.688919   -62.871140    94.210785   132.503706     7.333998
0.094800  -125.031688  -103.615281    43.831563   136.518568    64.794512   -83.223612
0.096000  -125.243254   -17.507434   109.287410   105.964937   -26.018071  -126.739239
0.097200   -74.647818    69.484333   127.739958    32.127477  -105.224531  -117.455453
0.098400    14.403050   127.028630    85.718155   -63.313126  -137.793277   -41.993935
0.099600   106.013145   124.043057   -12.387505  -134.058478   -92.267443    62.340660
0.100800   140.483010    44.480294  -106.555027  -125.277916    13.083645   133.125297
0.102000    88.176062   -65.602024  -136.805761   -42.199570   103.624476   120.564737
0.103200    -9.428120  -125.491860   -87.137394    55.096676   126.911343    45.618863
0.104400   -90.020494  -116.957696    -2.963534   112.088334    91.380004   -40.640670
0.105600  -126.998807   -58.469081    80.418329   121.164832    14.766465  -110.678252
0.106800  -104.653928    31.314796   131.397193    70.264804   -79.913790  -131.247028
0.108000   -20.404508   120.339514   110.244365   -35.198332  -135.976898   -69.861067
