##TITLE=1D-13C-1-2-5-328-110-"no"-"yes"
##JCAMP-DX=5.01 $$ Magritek Spinsolve SPA1903 2.0.4.4423
##DATA TYPE=NMR FID
##DATA CLASS=NTUPLES
##ORIGIN=SPA1903 at Magritek
##OWNER=Copyright (C) 2025 by Magritek
##LONGDATE=2025/03/17 11:58:17.236
##.OBSERVE FREQUENCY=15.4860999900848
##.OBSERVE NUCLEUS=^13C
##.DELAY=( 20,  2000)
##.ACQUISITION MODE=SIMULTANEOUS
##.FIELD= 1.5
##.AVERAGES= 1
##.DIGITISER RES=16
##.SHIFT REFERENCE=(INTERNAL, Water, 4096, 0)
##$REFERENCE_POINT= 796.529    $$ Referencing label
$$      Distance of the zero axis position (in Hz) from the last data
$$      point (right edge); positive values -> right edge is below 0 Hz
##SPECTROMETER/DATA SYSTEM=Magritek
##SAMPLE DESCRIPTION=solvent=Water
$$ Bruker specific parameters
$$ --------------------------
##$AUNMP=   <proc_1d_nosref>
##$INSTRUM= <Magritek>
##$SI=      8192
##$TD=      8192
##$TDeff=   8192
##$SW=      322.870200
##$BF1=     15.4860999900848
##$SF=      15.4843965190859
##$LB=      0
##$PHC0=    216.9
##$PHC1=    0.0
##$REVERSE= yes
$$ End of Bruker specific parameters
$$ ---------------------------------
##NTUPLES=NMR FID
##VAR_NAME=        TIME,            FID/REAL,            FID/IMAG, PAGE NUMBER
##SYMBOL=             X,                   R,                   I,           N
##VAR_TYPE= INDEPENDENT,           DEPENDENT,           DEPENDENT,        PAGE
##VAR_FORM=        AFFN,                AFFN,                AFFN,        AFFN
##VAR_DIM=         8192,                8192,                8192,           2
##UNITS=        SECONDS,     ARBITRARY UNITS,     ARBITRARY UNITS,            
##FIRST=              0,                   0,                   0,           1
##LAST=    1.638199e+00,   0.305938129530388,  -0.309753249591108,           2
##MIN=                0,   -6489.15759270742,   -6238.19034500497,           1
##MAX=     1.638199e+00,    6262.91953322438,    6743.08793510345,           2
##FACTOR=             1,                   1,                   1,           1
##PAGE=N=1
##DATA TABLE=(X++(R..R)), XYDATA
0.000000     0.000000  2711.684554 -4929.974519 -6294.426090   274.261510  6262.919533
0.001200  4498.841260 -2756.593636 -6489.157593 -2208.492068  4650.755676  5667.723042
0.002400  -176.710193 -5629.600614 -4196.470906  2213.551470  5883.036032  2453.038400
0.003600 -3893.623147 -5523.681163  -492.880287  5134.867786  4573.999348 -1526.598879
0.004800 -5847.397946 -3091.340750  3517.081811  5924.903618  1040.694310 -5228.042167
0.006000 -5105.142234  1361.311459  6230.251335  3406.151523 -3694.232365 -6252.398289
0.007200 -1022.785207  5510.594692  5184.656011 -1595.382142 -6364.678637 -3191.139262
0.008400  3901.772467  6073.166496   734.455276 -5416.888896 -4809.504963  1667.585041
0.009600  5979.106309  2914.464453 -3627.927750 -5607.958806  -753.292260  4878.571324
0.010800  4515.560518 -1256.364549 -5426.408117 -3030.608681  2989.346826  5377.602562
0.012000  1266.837890 -4371.572152 -4727.513152   634.160850  5266.184923  3553.154578
0.013200 -2541.144205 -5652.161956 -1832.435938  4353.214088  5243.996504  -382.187646
0.014400 -5606.010345 -3914.979738  2681.339676  6023.508852  1871.291286 -4677.112948
0.015600 -5382.835412   660.147772  5827.883671  3693.911400 -2985.031650 -5859.101982
0.016800 -1480.998075  4632.407762  4937.063268  -809.438096 -5420.422421 -3309.415139
0.018000  2734.141380  5295.616194  1453.864860 -4022.769158 -4581.159372   347.296330
0.019200  4808.584356  3473.438664 -2038.161013 -5087.483245 -2013.791305  3519.874142
0.020400  4854.695621   292.148177 -4732.914830 -4041.424884  1671.192782  5441.814054
0.021600  2524.016483 -3600.932009 -5332.440613  -426.046738  5085.847437  4308.641906
0.022800 -1868.517098 -5746.951068 -2448.899356  3906.214172  5366.830671   150.299451
0.024000 -5197.089723 -4043.574672  2071.132158  5518.623684  2134.583863 -3790.490261
0.025200 -4967.606468   -75.517302  4799.079963  3742.769594 -1809.331950 -5046.929127
0.026400 -2149.360626  3266.248852  4682.795239   469.819932 -4283.797181 -3853.294237
0.027600  1242.380690  4838.994845  2584.194173 -2814.037678 -4842.698364 -1007.299158
0.028800  4136.350667  4305.914107  -861.003468 -5075.186174 -3050.277196  2801.814936
0.030000  5249.654287  1199.051479 -4399.872434 -4585.790008   962.882377  5367.605263
0.031200  3062.742977 -3085.178487 -5342.169797  -917.855666  4583.157948  4337.631681
0.032400 -1241.744918 -5197.722977 -2690.932238  3059.590145  4919.283517   730.494538
0.033600 -4205.307184 -3907.400247  1058.939697  4614.309262  2577.750826 -2501.258469
0.034800 -4517.831189 -1107.844121  3601.141037  3960.433244  -439.630624 -4330.354514
0.036000 -3033.720066  1970.883605  4683.860278  1702.887737 -3465.977899 -4462.044851
0.037200    77.852786  4615.798577  3481.538159 -2031.576398 -5092.587989 -1810.505867
0.038400  3784.980392  4676.394587  -296.438319 -4898.321831 -3357.823696  2350.580973
0.039600  5070.234824  1471.711244 -3872.361261 -4327.808666   533.493851  4621.138566
0.040800  2973.364817 -2244.511574 -4604.807059 -1328.289216  3455.841012  3953.402950
0.042000  -298.693023 -4091.969508 -2931.252964  1723.022582  4280.539491  1676.367222
0.043200 -2952.497763 -4020.760034  -218.707341  3876.143264  3292.083622 -1312.767091
0.044400 -4391.874419 -2142.222764  2820.826136  4390.519592   503.934524 -4073.311994
0.045600 -3635.294604  1329.926168  4702.214524  2256.227534 -3034.794555 -4579.877214
0.046800  -388.021226  4297.006433  3596.412241 -1586.240568 -4731.026416 -1977.406998
0.048000  3159.285477  4327.512681   155.641035 -4130.412708 -3252.778733  1569.014574
0.049200  4338.323184  1773.305766 -2831.976428 -3909.991486  -298.343157  3600.844577
0.050400  3134.485626 -1083.667287 -3954.135574 -2057.215932  2293.560100  3898.503780
0.051600   830.432518 -3294.782148 -3501.840175   579.984373  4068.950757  2600.615894
0.052800 -2142.383093 -4334.233516 -1168.405757  3530.953960  3904.350538  -618.340522
0.054000 -4440.009892 -2727.399523  2429.966181  4561.044006   967.097434 -3812.850148
0.055200 -3791.619441   934.684215  4423.456660  2387.079443 -2535.863245 -4224.609227
0.056400  -711.438117  3567.889446  3398.406051  -869.917732 -3959.261838 -2212.345965
0.057600  2125.796020  3825.822338   938.977350 -3030.990096 -3349.021482   352.045870
0.058800  3643.359349  2554.060528 -1636.180647 -3882.585602 -1438.319802  2809.185837
0.060000  3708.734972    51.171713 -3778.681423 -2998.373379  1548.561929  4239.520769
0.061200  1673.524430 -3012.275844 -3997.438942    -7.110352  4034.966890  3064.800144
0.062400 -1757.375322 -4384.924226 -1516.277309  3208.781797  3885.119403  -241.833944
0.063600 -3992.002496 -2782.139533  1822.688050  4110.634186  1309.158796 -3021.616433
0.064800 -3543.775998   222.985507  3600.234464  2570.019503 -1503.837521 -3703.039470
0.066000 -1435.467569  2529.048844  3419.590972   194.892713 -3242.837748 -2783.725816
0.067200  1019.927476  3639.735245  1882.996555 -2221.754081 -3692.915451  -631.288908
0.068400  3298.126923  3221.062464  -875.492698 -3966.355702 -2157.280048  2389.299088
0.069600  4021.988454   614.291326 -3607.310450 -3315.441655  1141.165219  4149.978883
0.070800  1953.080601 -2644.615452 -3885.408700  -290.660432  3577.866685  2948.437911
0.072000 -1268.456711 -3811.353484 -1645.833048  2436.293103  3446.408072   296.914418
0.073200 -3101.564917 -2705.823253   893.228637  3366.036790  1804.278201 -1901.484318
0.074400 -3323.795851  -751.837019  2754.010927  2963.788753  -424.865958 -3364.404063
0.075600 -2257.565819  1664.088385  3633.521492  1123.394330 -2869.734338 -3351.721026
0.076800   362.436092  3670.921725  2428.457893 -1865.544274 -3867.726432 -1040.096209
0.078000  3107.513455  3360.128125  -594.854468 -3763.953957 -2212.436448  2036.638088
0.079200  3693.365878   789.798261 -3026.214694 -3060.935225   647.873331  3468.611502
0.080400  1994.375983 -1841.522014 -3341.460728  -802.778336  2627.296006  2857.300736
0.081600  -335.546195 -3088.623116 -2103.772356  1407.003231  3211.142709  1160.679251
0.082800 -2292.474422 -3016.688524   -94.216245  3010.418995  2491.826713 -1123.910097
0.084000 -3439.152803 -1534.115667  2321.839036  3370.481888   233.468318 -3268.000629
0.085200 -2734.180355  1244.594424  3712.430848  1535.131935 -2582.247932 -3461.001342
0.086400    -2.316714  3422.612015  2546.022351 -1466.990079 -3587.533973 -1246.762027
0.087600  2564.587361  3133.666467  -134.961805 -3118.059790 -2239.619073  1288.201734
0.088800  3158.016701  1206.870085 -2118.691253 -2858.549854  -199.758517  2669.953283
0.090000  2345.470731  -788.064635 -2997.904171 -1622.091818  1736.691807  3059.331260
0.091200   678.219601 -2617.494176 -2777.302495   528.897399  3280.694776  1985.868307
0.092400 -1833.808109 -3423.308380  -742.624904  2909.519074  2951.581523  -714.130642
0.093600 -3510.552704 -1900.254681  2088.974987  3418.054118   475.721677 -2990.331049
0.094800 -2697.200867   890.135217  3297.221181  1620.620584 -1995.546883 -3080.310001
0.096000  -395.253840  2670.415527  2428.516478  -702.416826 -2909.345138 -1615.215316
0.097200  1584.491837  2861.075793   697.361774 -2301.172830 -2525.473674   286.810395
0.098400  2767.077054  1927.977564 -1269.627066 -2992.875285 -1070.506432  2233.483444
0.099600  2846.664893   -72.108192 -2962.971046 -2208.029872  1312.875696  3261.473030
0.100800  1156.368412 -2438.024862 -3013.921756   201.443064  3171.033907  2153.257921
0.102000 -1550.752726 -3287.647636  -918.988736  2548.700524  2799.040204  -412.924294
0.103200 -3037.427318 -1866.591888  1544.984191  2965.105486   749.795208 -2281.342587
0.104400 -2473.476780   289.427389  2622.761262  1779.934068 -1156.447652 -2670.488134
0.105600  -995.250676  1868.051751  2501.151319   135.694979 -2422.685314 -2088.084217
0.106800   802.725711  2799.209490  1402.975750 -1788.820855 -2849.844382  -360.213149
0.108000  2653.572634  2398.421879  -878.974868 -3105.942418 -1454.609249  2049.730520
