##TITLE=1D-13C-1-2-5-328-110-"no"-"yes"
##JCAMP-DX=5.01 $$ Magritek Spinsolve SPA1903 2.0.4.4423
##DATA TYPE=NMR FID
##DATA CLASS=NTUPLES
##ORIGIN=SPA1903 at Magritek
##OWNER=Copyright (C) 2025 by Magritek
##LONGDATE=2025/03/17 11:57:26.644
##.OBSERVE FREQUENCY=15.4860999900848
##.OBSERVE NUCLEUS=^13C
##.DELAY=( 20,  2000)
##.ACQUISITION MODE=SIMULTANEOUS
##.FIELD= 1.5
##.AVERAGES= 1
##.DIGITISER RES=16
##.SHIFT REFERENCE=(INTERNAL, Water, 4096, 0)
##$REFERENCE_POINT= 796.529    $$ Referencing label
$$      Distance of the zero axis position (in Hz) from the last data
$$      point (right edge); positive values -> right edge is below 0 Hz
##SPECTROMETER/DATA SYSTEM=Magritek
##SAMPLE DESCRIPTION=solvent=Water
$$ Bruker specific parameters
$$ --------------------------
##$AUNMP=   <proc_1d_nosref>
##$INSTRUM= <Magritek>
##$SI=      8192
##$TD=      8192
##$TDeff=   8192
##$SW=      322.870200
##$BF1=     15.4860999900848
##$SF=      15.4843965190859
##$LB=      0
##$PHC0=    217.4
##$PHC1=    0.0
##$REVERSE= yes
$$ End of Bruker specific parameters
$$ ---------------------------------
##NTUPLES=NMR FID
##VAR_NAME=        TIME,            FID/REAL,            FID/IMAG, PAGE NUMBER
##SYMBOL=             X,                   R,                   I,           N
##VAR_TYPE= INDEPENDENT,           DEPENDENT,           DEPENDENT,        PAGE
##VAR_FORM=        AFFN,                AFFN,                AFFN,        AFFN
##VAR_DIM=         8192,                8192,                8192,           2
##UNITS=        SECONDS,     ARBITRARY UNITS,     ARBITRARY UNITS,            
##FIRST=              0,                   0,                   0,           1
##LAST=    1.638199e+00,   0.464221579140949,   -0.52340846952078,           2
##MIN=                0,    -9856.1556695867,   -9332.45556450974,           1
##MAX=     1.638199e+00,    9514.22400951236,    10243.9569877365,           2
##FACTOR=             1,                   1,                   1,           1
##PAGE=N=1
##DATA TABLE=(X++(R..R)), XYDATA
0.000000     0.000000  4096.203689 -7546.217163 -9537.091779   464.066676  9514.224010
0.001200  6809.442994 -4196.683386 -9856.155670 -3332.658510  7090.089684  8591.440194
0.002400  -317.221977 -8558.880772 -6347.703912  3390.465350  8923.400201  3695.264602
0.003600 -5950.361133 -8362.369452  -672.440551  7809.464841  6868.406098 -2383.133599
0.004800 -8848.463757 -4607.766944  5374.331421  8930.009723  1486.201608 -7942.337407
0.006000 -7644.623846  2154.224958  9384.172378  5023.345893 -5630.099649 -9371.153387
0.007200 -1444.714811  8325.486642  7727.326339 -2492.945892 -9549.221106 -4696.171544
0.008400  5906.906236  9068.050518  1010.013413 -8145.790483 -7141.470037  2582.120811
0.009600  8959.204191  4279.377167 -5512.142586 -8361.774075 -1021.296577  7349.145985
0.010800  6681.649078 -1975.872154 -8115.503412 -4429.062512  4558.141385  7995.802315
0.012000  1757.559596 -6582.654899 -6950.121266  1076.990355  7849.498728  5175.123168
0.013200 -3887.363840 -8368.163234 -2589.191146  6542.815457  7693.185572  -719.474348
0.014400 -8332.130738 -5676.180314  4072.017693  8881.673351  2636.932776 -7000.116478
0.015600 -7895.979196  1118.104525  8662.452557  5331.617707 -4532.089558 -8621.504342
0.016800 -2048.940557  6925.031280  7228.663550 -1348.450037 -8058.827591 -4743.507105
0.018000  4190.522286  7771.168197  1964.582218 -6014.749261 -6660.519342   669.272646
0.019200  7131.458487  4964.775736 -3171.803316 -7457.333777 -2762.932964  5266.427389
0.020400  7022.706029   267.358497 -6984.217126 -5799.151141  2616.242866  7978.265580
0.021600  3510.436205 -5405.322441 -7716.724001  -440.438110  7490.561736  6166.316523
0.022800 -2900.167633 -8397.841645 -3405.342856  5835.641188  7758.818910    15.564514
0.024000 -7653.849062 -5748.958958  3198.435776  8050.414035  2939.748459 -5665.692828
0.025200 -7170.357083   103.209965  7077.539617  5292.647985 -2843.124434 -7346.821493
0.026400 -2923.219081  4900.183684  6722.414553   455.515639 -6316.451182 -5440.528873
0.027600  2017.927741  7026.881527  3528.790664 -4237.085989 -6921.136662 -1228.833233
0.028800  6074.829787  6070.316134 -1450.059954 -7340.305743 -4199.765543  4220.076105
0.030000  7496.514762  1502.820424 -6439.017253 -6468.038032  1592.226199  7767.175376
0.031200  4228.528712 -4638.284257 -7648.435801 -1096.270591  6709.882644  6105.604141
0.032400 -1998.086437 -7509.666269 -3676.034793  4616.092206  7034.524708   783.425751
0.033600 -6195.614987 -5443.949935  1779.181308  6641.950460  3475.250163 -3785.006801
0.034800 -6405.388561 -1308.806729  5299.789605  5488.229774  -888.664692 -6192.138569
0.036000 -4087.308176  2997.134762  6595.708878  2182.216987 -5060.473557 -6203.596684
0.037200   359.623515  6608.370321  4733.209396 -3083.376330 -7187.692584 -2346.381229
0.038400  5512.608897  6526.087422  -661.026276 -7023.864405 -4564.638481  3563.859608
0.039600  7152.982055  1815.024133 -5661.144834 -6007.966461  1032.531560  6638.169331
0.040800  3984.008095 -3447.826318 -6477.830596 -1576.804317  5067.784697  5420.476680
0.042000  -718.402018 -5843.666099 -3888.622727  2687.725065  5982.276923  2059.364568
0.043200 -4337.009681 -5490.264344    -5.530125  5494.898708  4378.819298 -2078.295842
0.044400 -6122.069034 -2730.928270  4125.476804  6016.888530   427.456583 -5784.094501
0.045600 -4871.147497  2104.206536  6544.691785  2901.237889 -4421.535963 -6308.761826
0.046800  -272.627328  6136.258475  4823.595435 -2490.476142 -6602.689098 -2491.385582
0.048000  4612.830475  5938.679096   -82.481918 -5914.363351 -4333.129722  2520.379064
0.049200  6063.397997  2147.408265 -4182.781692 -5308.601396   -68.858503  5145.268118
0.050400  4112.909414 -1832.999605 -5495.023007 -2527.784078  3417.468677  5246.884676
0.051600   813.508264 -4657.034007 -4606.896854  1080.241205  5614.717598  3318.429715
0.052800 -3175.976382 -5873.992148 -1310.741640  4991.829467  5202.986731 -1106.691124
0.054000 -6159.991795 -3524.275310  3599.691266  6236.496741  1036.131480 -5444.736510
0.055200 -5058.926593  1607.439571  6171.766063  3021.309780 -3786.762099 -5765.479992
0.056400  -629.054242  5122.828587  4476.506024 -1562.988310 -5510.392308 -2719.564226
0.057600  3218.883169  5158.677142   924.842682 -4341.210719 -4374.761352   827.686054
0.058800  5024.754829  3180.501253 -2514.267101 -5209.784296 -1629.787342  3994.530605
0.060000  4871.043564  -222.722011 -5200.096790 -3829.552519  2374.638924  5725.853246
0.061200  1981.324779 -4281.697871 -5289.795977   282.518251  5582.048544  3949.627603
0.062400 -2676.974085 -5966.628744 -1753.301211  4603.586525  5142.661694  -661.502193
0.063600 -5549.045459 -3542.188921  2796.999632  5583.799819  1435.435839 -4367.200958
0.064800 -4661.026083   693.281477  5002.200124  3183.963866 -2378.248047 -4987.018742
0.066000 -1582.211443  3675.170670  4433.233515  -133.617635 -4474.807773 -3438.510601
0.067200  1690.905783  4840.202720  2200.899670 -3189.041008 -4813.437070  -519.548932
0.068400  4529.689802  4068.359314 -1454.475444 -5290.749134 -2616.209783  3407.464136
0.069600  5292.065538   529.073599 -4986.250083 -4255.335772  1845.420840  5607.017518
0.070800  2320.882090 -3821.073968 -5116.727916   -34.226260  4991.894315  3729.537840
0.072000 -2079.085231 -5157.630306 -1844.251179  3577.554579  4468.211725   -32.729228
0.073200 -4321.129234 -3319.669170  1579.763430  4486.714642  2022.811998 -2816.140569
0.074400 -4258.251401  -596.536900  3785.821399  3647.928605  -890.600673 -4438.860274
0.075600 -2663.837451  2441.852300  4693.645366  1153.391379 -3946.337413 -4216.341059
0.076800   795.778174  4889.111537  2933.598720 -2716.106952 -5050.990350 -1067.392642
0.078000  4316.186183  4280.723548 -1140.595651 -5071.745643 -2624.666487  3012.433327
0.079200  4822.832062   678.725949 -4231.594849 -3847.277810  1266.764522  4686.916426
0.080400  2279.869329 -2794.777470 -4307.942011  -633.357072  3675.813363  3514.739844
0.081600  -848.224365 -4136.464719 -2406.992719  2182.571233  4095.120552  1109.971733
0.082800 -3182.764666 -3701.014144   229.768222  3986.224234  2958.342566 -1759.178138
0.084000 -4419.360945 -1658.379597  3218.691179  4212.460243   -11.237886 -4334.595857
0.085200 -3331.892660  1904.747744  4845.996519  1698.211315 -3617.349034 -4385.265173
0.086400   350.502424  4615.391942  3087.754802 -2264.778573 -4713.832009 -1277.628710
0.087600  3658.370945  3948.978298  -603.104593 -4243.271089 -2606.787667  2087.287178
0.088800  4090.769271  1160.018582 -3039.439595 -3517.068834   171.544821  3580.938428
0.090000  2702.584636 -1376.627905 -3817.293356 -1716.073269  2461.372998  3757.173394
0.091200   529.221502 -3463.476721 -3330.839890   966.452982  4216.859131  2272.744303
0.092400 -2582.222313 -4304.829757  -656.866560  3886.415024  3627.586339 -1224.022391
0.093600 -4602.773044 -2181.938021  2992.499749  4347.550088   252.706113 -4055.249663
0.094800 -3265.940245  1523.839099  4341.662878  1758.134801 -2922.480812 -3877.737100
0.096000   -75.551926  3656.531223  2847.404245 -1302.784321 -3758.816032 -1697.379113
0.097200  2342.969794  3538.309077   470.144829 -3121.753030 -2930.683488   745.510530
0.098400  3521.765084  2110.203929 -1872.405713 -3681.431544 -1018.280288  2991.467093
0.099600  3396.909506  -412.555110 -3786.628354 -2521.930479  1911.721892  4068.888447
0.100800  1175.971711 -3272.917931 -3675.334614   574.883049  4131.039426  2488.551087
0.102000 -2272.865257 -4150.237666  -829.530937  3483.613123  3402.932948  -906.155669
0.103200 -3996.631258 -2065.331741  2341.789504  3726.136418   528.849649 -3163.954944
0.104400 -2903.052957   812.080083  3412.138438  1872.993846 -1830.459437 -3271.598387
0.105600  -810.083895  2573.862445  2871.360465  -235.568212 -3066.636995 -2270.092471
0.106800  1279.710557  3389.856502  1412.583950 -2407.748549 -3375.696808  -136.519090
0.108000  3379.450781  2733.503752 -1362.233137 -3848.828806 -1544.347305  2779.822861
