##TITLE=1D-13C-1-2-5-328-110-"no"-"yes"
##JCAMP-DX=5.01 $$ Magritek Spinsolve SPA1903 2.0.4.4423
##DATA TYPE=NMR FID
##DATA CLASS=NTUPLES
##ORIGIN=SPA1903 at Magritek
##OWNER=Copyright (C) 2025 by Magritek
##LONGDATE=2025/03/17 12:00:44.491
##.OBSERVE FREQUENCY=15.4860999900848
##.OBSERVE NUCLEUS=^13C
##.DELAY=( 20,  2000)
##.ACQUISITION MODE=SIMULTANEOUS
##.FIELD= 1.5
##.AVERAGES= 1
##.DIGITISER RES=16
##.SHIFT REFERENCE=(INTERNAL, Water, 4096, 0)
##$REFERENCE_POINT= 796.529    $$ Referencing label
$$      Distance of the zero axis position (in Hz) from the last data
$$      point (right edge); positive values -> right edge is below 0 Hz
##SPECTROMETER/DATA SYSTEM=Magritek
##SAMPLE DESCRIPTION=solvent=Water
$$ Bruker specific parameters
$$ --------------------------
##$AUNMP=   <proc_1d_nosref>
##$INSTRUM= <Magritek>
##$SI=      8192
##$TD=      8192
##$TDeff=   8192
##$SW=      322.870200
##$BF1=     15.4860999900848
##$SF=      15.4843965190859
##$LB=      0
##$PHC0=    216.5
##$PHC1=    0.0
##$REVERSE= yes
$$ End of Bruker specific parameters
$$ ---------------------------------
##NTUPLES=NMR FID
##VAR_NAME=        TIME,            FID/REAL,            FID/IMAG, PAGE NUMBER
##SYMBOL=             X,                   R,                   I,           N
##VAR_TYPE= INDEPENDENT,           DEPENDENT,           DEPENDENT,        PAGE
##VAR_FORM=        AFFN,                AFFN,                AFFN,        AFFN
##VAR_DIM=         8192,                8192,                8192,           2
##UNITS=        SECONDS,     ARBITRARY UNITS,     ARBITRARY UNITS,            
##FIRST=              0,                   0,                   0,           1
##LAST=    1.638199e+00,  -0.531123845600883,  -0.120983425389084,           2
##MIN=                0,    -1839.2049601393,   -1809.20729359776,           1
##MAX=     1.638199e+00,    1789.98193656988,    1917.70873117406,           2
##FACTOR=             1,                   1,                   1,           1
##PAGE=N=1
##DATA TABLE=(X++(R..R)), XYDATA
0.000000     0.000000   769.897376 -1389.700043 -1789.853766    76.397681  1781.350938
0.001200  1272.148775  -782.440798 -1834.273524  -626.908974  1317.841357  1607.645633
0.002400   -49.723305 -1596.024725 -1196.093728   622.557042  1661.552364   694.924335
0.003600 -1095.142492 -1560.420360  -151.181358  1446.603581  1308.822638  -417.759721
0.004800 -1658.505235  -898.984386   979.059053  1693.411994   333.996559 -1477.833384
0.006000 -1484.290679   357.182374  1789.981937  1011.132815 -1042.461470 -1811.148312
0.007200  -326.415115  1571.139008  1512.672932  -430.753655 -1839.204960  -950.114226
0.008400  1102.796411  1759.896983   237.452650 -1551.792277 -1400.942163   459.330520
0.009600  1724.518204   863.519366 -1028.423590 -1626.622149  -245.921024  1394.278786
0.010800  1328.970406  -328.140703 -1559.666021  -901.655073   833.497681  1553.504828
0.012000   411.814124 -1231.153732 -1397.358085   137.366999  1524.244007  1078.429208
0.013200  -697.102139 -1656.492777  -589.458489  1242.387692  1566.340466   -59.782126
0.014400 -1638.095935 -1193.738439   743.970830  1780.130185   598.568646 -1346.811422
0.015600 -1609.036256   143.958073  1702.261228  1138.663393  -830.576125 -1734.446095
0.016800  -480.457464  1336.083745  1477.002703  -191.735350 -1579.348752 -1016.530899
0.018000   752.425401  1566.413981   482.398999 -1145.563873 -1373.844722    40.733078
0.019200  1393.339711  1073.416667  -543.110162 -1511.390068  -660.728222  1002.407266
0.020400  1472.187032   161.461766 -1376.830759 -1254.447426   431.411282  1626.706285
0.021600   822.750368 -1021.337268 -1629.165505  -206.161986  1490.804505  1334.086400
0.022800  -493.552590 -1716.274487  -797.507860  1115.982975  1629.194718   121.047694
0.024000 -1521.648330 -1260.066090   554.810847  1649.694224   702.611709 -1083.697127
0.025200 -1510.325496   -90.512715  1400.135886  1167.522477  -464.647937 -1511.005188
0.026400  -716.294091   920.047877  1423.446647   216.097955 -1246.014218 -1208.276941
0.027600   285.566905  1443.832491   865.172106  -770.441980 -1489.887118  -394.680152
0.028800  1209.773366  1359.112624  -172.393747 -1524.335232 -1009.114956   772.899769
0.030000  1618.717031   450.606067 -1301.696757 -1446.301225   208.814773  1615.710047
0.031200  1003.941095  -868.630903 -1640.154836  -369.291924  1338.542545  1370.977889
0.032400  -290.001451 -1564.540303  -888.686177   853.654710  1507.335965   315.311274
0.033600 -1219.155173 -1241.345173   217.422938  1380.856289   872.306705  -674.118479
0.034800 -1397.306007  -441.983774  1032.715116  1273.235788   -21.326922 -1310.010837
0.036000 -1029.525261   513.087274  1456.946070   622.454726 -1006.078917 -1427.008164
0.037200   -78.937294  1400.228182  1165.878535  -539.935219 -1594.928819  -662.184476
0.038400  1104.173000  1495.374706    12.507595 -1488.203962 -1125.452539   633.269000
0.039600  1576.414951   558.702629 -1130.682334 -1391.029954    53.658744  1396.612832
0.040800  1006.496438  -595.228798 -1434.266972  -521.468631   992.406596  1280.542131
0.042000    28.833506 -1236.368909 -1001.755240   425.992659  1339.950218   642.786947
0.043200  -837.251911 -1307.222677  -197.265892  1164.472483  1131.408327  -295.431073
0.044400 -1396.056611  -792.310365   807.310877  1432.103545   288.382021 -1237.028927
0.045600 -1242.325981   304.124156  1483.835975   823.700123  -876.521913 -1492.695069
0.046800  -241.651824  1312.646178  1219.687233  -384.149306 -1488.788341  -737.265464
0.048000   908.077860  1402.816603   175.908589 -1243.261125 -1112.422148   365.645046
0.049200  1358.731707   685.853623  -794.006438 -1287.442673  -232.895193  1075.630252
0.050400  1085.117501  -198.546214 -1244.301211  -793.628854   617.306826  1295.127582
0.051600   408.204921  -994.051632 -1214.436589    56.102326  1291.800228   953.431849
0.052800  -577.775499 -1431.234020  -510.790780  1070.491784  1334.243953   -68.973569
0.054000 -1405.903983  -988.140068   672.988107  1488.631708   441.223841 -1144.399961
0.055200 -1290.938146   166.769231  1384.681983   880.688952  -694.074958 -1383.880753
0.056400  -375.070963  1053.502688  1167.467349  -124.350108 -1231.230677  -843.273129
0.057600   545.841510  1263.580743   455.643295  -888.538811 -1164.995060   -39.697589
0.058800  1137.792232   954.871981  -391.518309 -1281.760133  -616.430939   827.402672
0.060000  1283.113249   168.720696 -1180.343093 -1090.863811   364.928146  1398.015807
0.061200   698.223848  -880.904314 -1373.153651  -151.036104  1272.642192  1107.955073
0.062400  -437.180207 -1431.617885  -641.073372   940.605238  1335.240774    83.053993
0.063600 -1248.753567 -1019.221846   452.385998  1339.028403   574.415683  -868.001362
0.064800 -1220.839075   -97.524572  1112.182205   965.239880  -328.921702 -1209.725884
0.066000  -631.257992   704.653761  1189.371162   245.239511 -1000.601521 -1047.523010
0.067200   178.355785  1208.300576   773.219344  -623.629408 -1284.449792  -374.072823
0.068400  1029.220439  1180.100137  -143.705569 -1314.229603  -856.336461   684.736830
0.069600  1390.266602   361.470667 -1120.820243 -1195.810504   224.223274  1350.592903
0.070800   787.574903  -745.643804 -1326.056485  -264.940133  1095.714308  1086.209659
0.072000  -244.425418 -1234.965516  -707.618812   658.847931  1194.792411   289.900942
0.073200  -936.970715 -1021.729887   114.550352  1100.059625   770.605574  -494.739245
0.074400 -1177.598752  -436.457708   841.901332  1113.088121    36.589383 -1110.600704
0.075600  -918.459845   423.165171  1273.192036   546.868519  -878.752143 -1232.095979
0.076800   -45.906708  1214.063912   964.781729  -485.373199 -1336.845536  -517.196787
0.078000   945.817103  1223.254259   -20.413446 -1223.426207  -897.690841   524.371916
0.079200  1276.680027   453.329616  -909.389476 -1127.848192    29.991791  1118.947831
0.080400   834.766973  -449.657640 -1163.648760  -469.314433   768.986595  1065.919740
0.081600    83.111667  -995.055055  -883.052001   298.524205  1123.720170   595.410722
0.082800  -664.100539 -1136.341856  -221.488717   981.291137  1004.754910  -221.605687
0.084000 -1204.506209  -710.484725   682.398795  1245.448213   256.912769 -1064.577293
0.085200 -1069.824875   264.356606  1271.262127   688.507033  -756.183502 -1250.205253
0.086400  -184.741493  1093.460495   999.223878  -319.581545 -1217.422505  -601.467026
0.087600   725.229401  1132.782215   162.607524  -973.406132  -913.724342   234.247454
0.088800  1081.913997   618.540653  -574.981651 -1067.903436  -282.460017   840.762663
0.090000   963.909372   -72.800375 -1038.279018  -755.201610   464.329091  1142.534930
0.091200   422.634168  -842.659996 -1096.858041    11.392082  1129.546734   854.835764
0.092400  -495.539519 -1247.367103  -437.441375   923.924132  1134.102632   -75.868168
0.093600 -1187.743706  -808.979267   566.742172  1224.480459   359.693877  -926.674824
0.094800 -1044.220552   113.243368  1105.924737   732.773365  -519.517471 -1111.765280
0.096000  -350.657807   812.272630   976.276388   -29.894135  -980.793568  -751.701120
0.097200   379.353578  1053.682398   455.936472  -695.326077 -1015.087677  -109.863762
0.098400   940.857025   859.905823  -282.140230 -1106.127793  -577.423114   676.683619
0.099600  1116.107130   169.850998 -1013.051446  -943.339487   304.237682  1183.726772
0.100800   592.954595  -749.424187 -1156.276487  -114.917882  1063.143327   911.125101
0.102000  -370.894702 -1177.781646  -517.514844   764.979261  1076.998286    69.752887
0.103200  -996.643196  -821.385337   344.667022  1056.679558   481.915361  -652.536436
0.104400  -981.828854  -134.608690   859.320764   814.500743  -204.658939  -980.514972
0.105600  -583.890314   522.588430  1006.828512   273.738638  -814.336603  -930.020260
0.106800   102.687028  1040.417697   707.231184  -514.721961 -1117.799042  -335.137209
0.108000   886.275708  1009.974895  -139.407810 -1120.603106  -705.674887   591.396430
