##TITLE=1D-13C-1-2-5-328-110-"no"-"yes"
##JCAMP-DX=5.01 $$ Magritek Spinsolve SPA1903 2.0.4.4423
##DATA TYPE=NMR FID
##DATA CLASS=NTUPLES
##ORIGIN=SPA1903 at Magritek
##OWNER=Copyright (C) 2025 by Magritek
##LONGDATE=2025/03/17 11:57:02.909
##.OBSERVE FREQUENCY=15.4860999900848
##.OBSERVE NUCLEUS=^13C
##.DELAY=( 20,  2000)
##.ACQUISITION MODE=SIMULTANEOUS
##.FIELD= 1.5
##.AVERAGES= 1
##.DIGITISER RES=16
##.SHIFT REFERENCE=(INTERNAL, Water, 4096, 0)
##$REFERENCE_POINT= 796.529    $$ Referencing label
$$      Distance of the zero axis position (in Hz) from the last data
$$      point (right edge); positive values -> right edge is below 0 Hz
##SPECTROMETER/DATA SYSTEM=Magritek
##SAMPLE DESCRIPTION=solvent=Water
$$ Bruker specific parameters
$$ --------------------------
##$AUNMP=   <proc_1d_nosref>
##$INSTRUM= <Magritek>
##$SI=      8192
##$TD=      8192
##$TDeff=   8192
##$SW=      322.870200
##$BF1=     15.4860999900848
##$SF=      15.4843965190859
##$LB=      0
##$PHC0=    217.4
##$PHC1=    0.0
##$REVERSE= yes
$$ End of Bruker specific parameters
$$ ---------------------------------
##NTUPLES=NMR FID
##VAR_NAME=        TIME,            FID/REAL,            FID/IMAG, PAGE NUMBER
##SYMBOL=             X,                   R,                   I,           N
##VAR_TYPE= INDEPENDENT,           DEPENDENT,           DEPENDENT,        PAGE
##VAR_FORM=        AFFN,                AFFN,                AFFN,        AFFN
##VAR_DIM=         8192,                8192,                8192,           2
##UNITS=        SECONDS,     ARBITRARY UNITS,     ARBITRARY UNITS,            
##FIRST=              0,                   0,                   0,           1
##LAST=    1.638199e+00, -0.0677301171759553,   0.227593260156962,           2
##MIN=                0,    -12194.975202397,   -11524.7694457461,           1
##MAX=     1.638199e+00,    11742.0825500342,    12657.9717423559,           2
##FACTOR=             1,                   1,                   1,           1
##PAGE=N=1
##DATA TABLE=(X++(R..R)), XYDATA
0.000000     0.000000  5068.138621 -9315.572634 -11790.267665   551.839991 11742.082550
0.001200  8434.749998 -5157.576545 -12194.975202 -4154.288145  8755.912880 10642.678198
0.002400  -385.792043 -10587.916569 -7850.345569  4185.936376 11037.270519  4574.423025
0.003600 -7354.139561 -10327.393632  -804.466980  9656.767831  8455.898359 -2971.735466
0.004800 -10901.041583 -5655.095393  6634.529046 10990.554245  1797.268990 -9784.904606
0.006000 -9364.879756  2684.597683 11520.610422  6129.641993 -6923.537176 -11468.175596
0.007200 -1760.760095 10185.613463  9460.222173 -3059.414682 -11703.157935 -5742.914107
0.008400  7251.615626 11100.077315  1229.881264 -9960.759429 -8738.249062  3157.148890
0.009600 10975.941521  5233.278190 -6758.379122 -10229.658217 -1221.143787  9012.427718
0.010800  8154.644042 -2450.529970 -9936.760366 -5394.030215  5610.255373  9765.557452
0.012000  2078.967452 -8078.935991 -8428.613488  1379.364267  9561.157181  6241.193673
0.013200 -4765.548624 -10161.330026 -3090.315931  7988.266651  9311.374459  -930.096483
0.014400 -10110.271736 -6837.107575  4962.785804 10759.636292  3171.457740 -8510.438077
0.015600 -9564.879152  1398.096019 10504.780792  6424.871797 -5517.098084 -10448.903150
0.016800 -2461.194234  8421.635243  8762.498995 -1676.112382 -9787.672480 -5711.308602
0.018000  5129.054279  9413.059560  2316.977763 -7333.200580 -8048.342449   876.456297
0.019200  8660.659651  5952.104756 -3903.524801 -8995.035800 -3259.367363  6401.880057
0.020400  8432.829592   250.159589 -8437.320040 -6933.354883  3213.353722  9599.421917
0.021600  4153.881699 -6552.346995 -9255.086432  -469.791856  9025.871879  7365.913359
0.022800 -3530.510909 -10098.549430 -4057.863576  7054.887069  9314.206282   -29.546296
0.024000 -9212.278485 -6872.087779  3898.549734  9677.768007  3483.006842 -6855.508421
0.025200 -8609.156212   180.159979  8542.229664  6320.555572 -3486.428882 -8816.512120
0.026400 -3431.011345  5936.917018  8040.161126   472.433582 -7619.224916 -6466.312644
0.027600  2510.790960  8413.187728  4127.398926 -5127.663063 -8226.450475 -1386.951231
0.028800  7274.506526  7197.504297 -1806.242518 -8775.757093 -4936.815199  5087.113527
0.030000  8890.575863  1719.861414 -7673.358965 -7670.941967  1938.343414  9265.203723
0.031200  4999.043686 -5569.556781 -9093.817242 -1243.221154  8014.613286  7234.829984
0.032400 -2424.815514 -8959.447854 -4336.294811  5561.997784  8376.553543   845.823007
0.033600 -7433.142495 -6423.635264  2210.756437  7907.702533  4038.950605 -4586.943868
0.034800 -7584.896997 -1439.862614  6347.077147  6428.411351 -1167.081339 -7330.397866
0.036000 -4731.961848  3617.137857  7756.992211  2483.756671 -6020.994089 -7266.929318
0.037200   505.515241  7794.837561  5506.377876 -3695.820158 -8448.149461 -2692.957401
0.038400  6535.195517  7655.865116  -848.618330 -8302.110435 -5315.432266  4282.972941
0.039600  8420.290953  2048.325604 -6736.594681 -7033.411380  1312.575746  7850.005919
0.040800  4614.953124 -4162.893747 -7614.025818 -1730.562087  6045.351540  6307.929276
0.042000  -984.894368 -6889.616076 -4445.307013  3270.299772  7004.151841  2284.390192
0.043200 -5182.877026 -6352.258489   147.173153  6456.762270  4996.632815 -2535.818533
0.044400 -7122.835011 -3069.364572  4901.536624  6961.366683   373.270451 -6772.283931
0.045600 -5565.104370  2550.688682  7600.894862  3282.839862 -5218.780740 -7311.189036
0.046800  -206.497009  7192.981632  5535.593616 -3015.080434 -7696.817765 -2809.435447
0.048000  5457.682233  6888.575564  -221.291104 -6964.351758 -4964.234481  3085.063952
0.049200  7080.025141  2361.753494 -4993.261182 -6122.348199    82.205980  6052.828294
0.050400  4670.722398 -2303.983629 -6383.060164 -2749.282563  4094.228247  5999.801965
0.051600   767.891531 -5439.676455 -5207.972581  1388.161311  6481.403487  3688.853958
0.052800 -3762.441944 -6719.611139 -1383.412769  5809.769628  5921.479964 -1393.681548
0.054000 -7128.172793 -3981.407429  4252.251168  7188.880807  1072.061945 -6366.921699
0.055200 -5783.178516  2001.785837  7179.362427  3374.514571 -4509.967576 -6652.079406
0.056400  -579.711533  6027.726277  5088.689805 -1989.238267 -6404.525100 -2979.182629
0.057600  3863.062775  5898.515979   886.325719 -5085.858006 -4931.588203  1130.765070
0.058800  5811.027481  3494.631287 -3023.500207 -5926.709049 -1706.462229  4649.933655
0.060000  5492.521357  -394.870619 -5992.270547 -4274.439818  2842.589633  6539.827705
0.061200  2128.561075 -4976.421273 -5988.481076   434.518111  6431.700911  4446.556644
0.062400 -3190.121598 -6848.380712 -1890.523481  5374.644026  5845.092617  -895.786003
0.063600 -6408.374036 -3960.684610  3356.916886  6432.988322  1500.440980 -5142.867200
0.064800 -5270.546099   984.913297  5795.625501  3512.843828 -2894.036525 -5701.682944
0.066000 -1621.131640  4336.091135  4969.254701  -361.479183 -5147.236922 -3748.278972
0.067200  2088.378523  5464.083308  2334.306966 -3716.964650 -5382.270356  -431.093159
0.068400  5181.849789  4493.376991 -1779.288261 -5987.072721 -2844.147579  3951.367716
0.069600  5958.002607   479.460214 -5716.514359 -4759.259919  2219.011360  6401.744447
0.070800  2527.935552 -4468.387449 -5794.055955   118.077407  5763.582282  4151.474184
0.072000 -2544.611635 -5912.031717 -1927.548131  4240.567265  5022.299438  -256.908969
0.073200 -5004.047590 -3622.605517  1992.352947  5086.804300  2089.344978 -3340.040706
0.074400 -4729.101761  -455.754575  4347.689642  3953.985974 -1181.399350 -4975.202019
0.075600 -2832.800223  2860.300078  5223.878067  1140.537018 -4506.222274 -4643.255863
0.076800  1033.274811  5508.899209  3175.303451 -3167.661357 -5659.673639 -1059.551579
0.078000  4958.728918  4746.695685 -1453.710141 -5757.459305 -2818.108566  3537.813322
0.079200  5420.090972   599.376175 -4892.172296 -4258.331862  1623.341632  5344.972553
0.080400  2391.180328 -3330.008777 -4807.049707  -503.894079  4254.990136  3840.144533
0.081600 -1159.087707 -4689.021776 -2514.883950  2635.322607  4529.066183  1023.216065
0.082800 -3657.770877 -4007.136346   439.773178  4468.439144  3138.845724 -2106.013322
0.084000 -4883.671400 -1685.684754  3660.911176  4601.079542  -146.332374 -4861.752621
0.085200 -3617.144293  2240.115109  5405.818122  1780.916110 -4135.591759 -4859.834240
0.086400   526.228766  5227.368683  3365.999650 -2679.664752 -5309.617566 -1283.617744
0.087600  4243.535894  4379.044812  -865.951979 -4846.982534 -2781.946008  2542.693552
0.088800  4579.604363  1085.558107 -3538.813813 -3824.862699   406.568144  4049.927953
0.090000  2840.717836 -1718.395214 -4200.502019 -1700.890157  2826.888963  4052.878134
0.091200   428.489991 -3851.874970 -3572.836979  1182.702899  4650.560137  2395.165544
0.092400 -2928.975922 -4706.464806  -628.179171  4340.855273  3972.171143 -1446.773813
0.093600 -5139.115325 -2332.013050  3436.073570  4810.298715   144.070175 -4598.261718
0.094800 -3563.185615  1836.172618  4869.641583  1830.969522 -3402.248537 -4277.962442
0.096000   115.075738  4156.833746  3029.423237 -1627.601901 -4178.762734 -1714.233304
0.097200  2739.908125  3843.134817   316.295547 -3520.400654 -3086.744276   988.492441
0.098400  3854.431398  2157.679131 -2155.945185 -3979.001106  -968.529056  3337.739751
0.099600  3613.588549  -575.835318 -4132.498591 -2649.355277  2164.450313  4417.422374
0.100800  1188.842557 -3641.330853 -3978.719096   730.132924  4565.366683  2649.349017
0.102000 -2594.052370 -4559.903453  -804.879951  3927.160438  3701.996153 -1136.291165
0.103200 -4464.333461 -2160.192449  2742.563891  4094.939830   394.987213 -3614.820310
0.104400 -3091.220436  1099.705664  3788.177605  1869.906284 -2183.268014 -3521.644234
0.105600  -664.608329  2902.226402  2977.793468  -449.931706 -3327.959215 -2283.287803
0.106800  1509.546409  3604.815556  1378.774810 -2661.131087 -3554.866570   -23.245150
0.108000  3655.594298  2861.219000 -1551.118568 -4150.604945 -1589.693742  3086.470959
