##TITLE=1D-13C-1-5-5-328-110-"no"-"yes"
##JCAMP-DX=5.01 $$ Magritek Spinsolve SPA1903 2.0.4.4423
##DATA TYPE=NMR FID
##DATA CLASS=NTUPLES
##ORIGIN=SPA1903 at Magritek
##OWNER=Copyright (C) 2025 by Magritek
##LONGDATE=2025/02/12 14:33:07.124
##.OBSERVE FREQUENCY=15.4861775226891
##.OBSERVE NUCLEUS=^13C
##.DELAY=( 20,  5000)
##.ACQUISITION MODE=SIMULTANEOUS
##.FIELD= 1.5
##.AVERAGES= 1
##.DIGITISER RES=16
##.SHIFT REFERENCE=(INTERNAL, Water, 4096, 0)
##$REFERENCE_POINT= 796.520    $$ Referencing label
$$      Distance of the zero axis position (in Hz) from the last data
$$      point (right edge); positive values -> right edge is below 0 Hz
##SPECTROMETER/DATA SYSTEM=Magritek
##SAMPLE DESCRIPTION=solvent=Water
$$ Bruker specific parameters
$$ --------------------------
##$AUNMP=   <proc_1d_nosref>
##$INSTRUM= <Magritek>
##$SI=      8192
##$TD=      8192
##$TDeff=   8192
##$SW=      322.868600
##$BF1=     15.4861775226891
##$SF=      15.4844740431616
##$LB=      0
##$PHC0=    216.4
##$PHC1=    0.0
##$REVERSE= yes
$$ End of Bruker specific parameters
$$ ---------------------------------
##NTUPLES=NMR FID
##VAR_NAME=        TIME,            FID/REAL,            FID/IMAG, PAGE NUMBER
##SYMBOL=             X,                   R,                   I,           N
##VAR_TYPE= INDEPENDENT,           DEPENDENT,           DEPENDENT,        PAGE
##VAR_FORM=        AFFN,                AFFN,                AFFN,        AFFN
##VAR_DIM=         8192,                8192,                8192,           2
##UNITS=        SECONDS,     ARBITRARY UNITS,     ARBITRARY UNITS,            
##FIRST=              0,                   0,                   0,           1
##LAST=    1.638199e+00,   0.152386983750476,  0.0105611583743912,           2
##MIN=                0,   -67.0744934832225,   -66.4397470444139,           1
##MAX=     1.638199e+00,    65.2836990933283,    66.8213939175379,           2
##FACTOR=             1,                   1,                   1,           1
##PAGE=N=1
##DATA TABLE=(X++(R..R)), XYDATA
0.000000     0.000000    28.863133   -49.525985   -61.907471    -1.545555    60.196960
0.001200    48.193611   -24.188991   -67.074493   -26.358124    43.929597    59.957648
0.002400     5.071575   -55.145732   -45.348815    19.155399    61.747771    28.702510
0.003600   -38.388085   -57.648409    -6.386503    52.863143    48.215930   -11.334340
0.004800   -60.188312   -36.441724    32.028503    62.194459    14.638337   -52.309903
0.006000   -53.462986    10.488142    63.209096    39.993755   -31.453904   -64.244779
0.007200   -14.398285    54.779984    57.124445   -10.189186   -64.628241   -37.852151
0.008400    32.452124    65.283699    16.840753   -52.774695   -53.299273     8.614967
0.009600    60.233889    39.553946   -26.908883   -58.760000   -19.628033    44.968982
0.010800    53.974859    -4.927908   -55.638226   -37.802470    25.017878    58.425867
0.012000    23.569356   -37.364813   -53.868188    -2.793938    53.976671    46.970052
0.013200   -17.373342   -58.826006   -28.241891    38.111449    62.560358     5.454537
0.014400   -56.541893   -49.203802    16.882499    63.300742    31.572962   -40.747322
0.015600   -60.350211    -6.796808    59.482249    48.432095   -20.782130   -63.747350
0.016800   -27.959394    39.055822    57.559603     6.562504   -53.330128   -48.150484
0.018000    16.552531    57.906859    30.220457   -34.703690   -56.833655    -8.727106
0.019200    45.324454    45.239209    -9.696648   -54.591110   -34.008406    28.883414
0.020400    56.906929    18.056362   -45.972453   -51.519187     5.882867    58.558347
0.021600    40.727642   -26.999598   -60.695483   -18.398529    47.560119    53.707038
0.022800    -4.869085   -60.314365   -41.861582    28.163429    63.184302    18.856947
0.024000   -45.670691   -52.691785     2.842021    56.482540    39.771314   -27.473624
0.025200   -61.027370   -20.015607    41.766063    53.484215    -0.640274   -53.077154
0.026400   -38.441786    20.553500    55.504385    22.641045   -37.667640   -50.962903
0.027600    -4.297728    47.416606    45.157765   -15.293872   -58.095840   -29.111596
0.028800    33.764988    54.692649    12.316538   -51.003699   -49.487201    12.825735
0.030000    58.729505    30.082339   -37.216319   -60.806412   -10.675939    50.710769
0.031200    49.622536   -12.032143   -58.243550   -32.079508    34.155157    56.864262
0.032400     8.595390   -48.849552   -46.623172    15.599956    57.570462    29.210205
0.033600   -32.572280   -53.493750   -11.218799    43.201304    44.564895    -7.653413
0.034800   -52.041478   -33.127319    25.050038    52.316141    18.134037   -39.010371
0.036000   -50.359879     0.620082    50.156085    39.193374   -20.245563   -58.205146
0.037200   -25.355948    41.640983    54.586596    -0.053586   -55.734053   -41.326032
0.038400    23.487376    58.136957    21.702484   -42.669265   -52.178008     0.764502
0.039600    52.798392    38.801333   -23.032771   -55.007865   -21.034866    39.471236
0.040800    50.128197     0.096817   -48.662221   -38.570781    17.674115    53.469865
0.042000    23.009658   -35.748551   -49.506655    -6.361227    45.084960    41.303239
0.043200   -11.814707   -51.059082   -29.472586    29.625097    49.887988    11.749598
0.044400   -43.571314   -48.389116     8.922962    53.894194    30.573596   -28.743099
0.045600   -54.005899   -12.753983    43.352850    47.999057    -8.695433   -55.197203
0.046800   -31.297704    31.011712    53.882093    11.302969   -44.010681   -45.862395
0.048000     9.197454    53.718622    30.086132   -28.127727   -52.230952   -13.100006
0.049200    40.704281    44.218954    -5.053891   -47.761845   -32.797491    22.015208
0.050400    49.546973    15.926121   -37.394973   -46.525075    -1.789564    45.107871
0.051600    35.335945   -18.809346   -51.638849   -21.276691    37.676043    51.356876
0.052800     4.005343   -50.621855   -40.070078    20.543299    57.610731    24.246101
0.054000   -36.951706   -52.278760    -1.984480    52.045823    41.224361   -17.944031
0.055200   -51.443453   -23.413758    35.947389    49.171697     1.442453   -46.742387
0.056400   -39.314995    16.009761    50.831691    22.765954   -29.606427   -46.379159
0.057600    -5.891945    43.646706    40.743654    -9.577798   -47.544868   -28.291856
0.058800    28.930564    52.238534    13.179589   -40.580893   -43.667272     6.545107
0.060000    51.729729    31.797120   -26.754252   -54.778975   -13.637622    42.827075
0.061200    46.245412    -6.163539   -54.089664   -34.289121    25.469273    54.330378
0.062400    17.505193   -42.298588   -47.021540     8.113725    48.432726    30.159994
0.063600   -27.145756   -52.254918   -15.615505    38.797114    44.295161    -4.025046
0.064800   -44.422573   -31.426779    19.690201    47.405095    18.262526   -33.743261
0.066000   -42.249109    -0.709899    42.549831    36.940824   -14.542705   -48.267085
0.067200   -22.870935    32.547356    48.650854     5.259699   -43.091121   -40.620484
0.068400    10.403677    52.671371    27.603041   -32.828922   -52.259678    -8.946590
0.069600    44.952488    41.063222   -14.840599   -52.407280   -24.271569    32.358353
0.070800    47.044758     3.444363   -45.065278   -38.148458    13.344538    48.627913
0.072000    25.063746   -28.210935   -48.362751    -9.769251    39.244487    37.891980
0.073200    -9.169506   -46.130839   -28.873222    25.045534    46.173965    12.405420
0.074400   -36.331794   -42.428818     3.865693    47.575458    32.040714   -22.045680
0.075600   -49.250553   -15.848222    37.218648    45.684407    -2.247331   -48.768648
0.076800   -34.875652    20.671248    51.963265    17.630070   -39.555070   -47.779064
0.078000     1.937127    47.264985    32.978570   -20.732807   -49.354284   -18.930657
0.079200    35.293357    43.016257    -3.212963   -44.389677   -33.242866    17.368216
0.080400    44.565914    18.968075   -27.654824   -41.980763    -3.303968    39.804198
0.081600    33.208110   -13.873293   -45.554969   -23.978311    27.484510    46.216642
0.082800     7.631166   -37.386714   -37.348341     9.305418    48.683648    25.844871
0.084000   -26.859432   -45.529423    -8.827757    42.559052    40.991586    -8.188148
0.085200   -47.823675   -28.338957    27.470137    47.145292     7.877648   -40.987747
0.086400   -37.427111    11.212963    44.390164    25.264550   -26.300344   -43.690036
0.087600    -8.739455    35.155063    39.039800    -8.137327   -45.226832   -26.774738
0.088800    22.385803    45.105785    12.442574   -33.763189   -40.156602     1.609500
0.090000    41.935866    31.747524   -18.160605   -46.921814   -19.452003    32.481663
0.091200    44.728690     2.022550   -45.285802   -37.748486    15.816505    47.763913
0.092400    18.466656   -34.282069   -44.978409    -1.885130    43.572564    34.588728
0.093600   -16.179440   -47.082467   -18.973149    33.668776    42.673974    -0.516142
0.094800   -40.239635   -31.115467    15.688703    45.340070    19.130507   -28.890835
0.096000   -42.712180    -6.847632    35.437427    32.993782    -7.608373   -41.521722
0.097200   -25.060891    23.411514    44.089253     9.181194   -37.129709   -37.217400
0.098400     6.543747    42.774713    25.090283   -25.033324   -45.451444   -12.948694
0.099600    35.302304    38.052768    -8.090214   -45.159218   -28.611786    25.927217
0.100800    46.550469    10.137342   -38.485526   -42.083155     7.340815    43.486231
0.102000    27.146406   -24.199076   -45.857164    -9.473692    34.825763    36.354360
0.103200    -5.158512   -40.083932   -26.980682    18.175105    40.859842    15.016543
0.104400   -31.324535   -37.576454     0.956315    37.690588    28.825501   -13.185637
0.105600   -41.173760   -19.256156    26.977466    41.941754     4.082841   -39.897559
0.106800   -34.679437    13.392430    43.962784    20.580943   -27.386985   -43.151011
0.108000    -4.212998    40.270460    33.811703   -14.590925   -45.307706   -18.792346
