##TITLE=1D-13C-1-2-5-328-110-"no"-"yes"
##JCAMP-DX=5.01 $$ Magritek Spinsolve SPA1903 2.0.4.4423
##DATA TYPE=NMR FID
##DATA CLASS=NTUPLES
##ORIGIN=SPA1903 at Magritek
##OWNER=Copyright (C) 2025 by Magritek
##LONGDATE=2025/03/17 12:00:04.099
##.OBSERVE FREQUENCY=15.4860999900848
##.OBSERVE NUCLEUS=^13C
##.DELAY=( 20,  2000)
##.ACQUISITION MODE=SIMULTANEOUS
##.FIELD= 1.5
##.AVERAGES= 1
##.DIGITISER RES=16
##.SHIFT REFERENCE=(INTERNAL, Water, 4096, 0)
##$REFERENCE_POINT= 796.529    $$ Referencing label
$$      Distance of the zero axis position (in Hz) from the last data
$$      point (right edge); positive values -> right edge is below 0 Hz
##SPECTROMETER/DATA SYSTEM=Magritek
##SAMPLE DESCRIPTION=solvent=Water
$$ Bruker specific parameters
$$ --------------------------
##$AUNMP=   <proc_1d_nosref>
##$INSTRUM= <Magritek>
##$SI=      8192
##$TD=      8192
##$TDeff=   8192
##$SW=      322.870200
##$BF1=     15.4860999900848
##$SF=      15.4843965190859
##$LB=      0
##$PHC0=    216.6
##$PHC1=    0.0
##$REVERSE= yes
$$ End of Bruker specific parameters
$$ ---------------------------------
##NTUPLES=NMR FID
##VAR_NAME=        TIME,            FID/REAL,            FID/IMAG, PAGE NUMBER
##SYMBOL=             X,                   R,                   I,           N
##VAR_TYPE= INDEPENDENT,           DEPENDENT,           DEPENDENT,        PAGE
##VAR_FORM=        AFFN,                AFFN,                AFFN,        AFFN
##VAR_DIM=         8192,                8192,                8192,           2
##UNITS=        SECONDS,     ARBITRARY UNITS,     ARBITRARY UNITS,            
##FIRST=              0,                   0,                   0,           1
##LAST=    1.638199e+00,  -0.598934124484482,   0.394066623795056,           2
##MIN=                0,   -2565.97698021149,   -2522.78793896042,           1
##MAX=     1.638199e+00,    2492.88381884387,    2670.55687747634,           2
##FACTOR=             1,                   1,                   1,           1
##PAGE=N=1
##DATA TABLE=(X++(R..R)), XYDATA
0.000000     0.000000  1083.504829 -1943.602429 -2495.380570    94.751077  2482.620342
0.001200  1792.166576 -1088.429722 -2565.976980  -882.072827  1834.376450  2241.893459
0.002400   -63.573316 -2227.718373 -1676.161157   870.217563  2335.316351   981.092683
0.003600 -1532.928260 -2192.292204  -216.377761  2015.772903  1828.356278  -581.340194
0.004800 -2321.604698 -1260.872942  1369.250680  2363.612277   450.534906 -2066.689174
0.006000 -2063.863609   505.813354  2492.883819  1404.453128 -1454.973893 -2524.326810
0.007200  -450.224622  2197.295724  2109.763423  -609.508176 -2559.416058 -1317.155921
0.008400  1549.079788  2458.842110   328.134570 -2172.091434 -1960.703265   640.895870
0.009600  2407.993865  1204.049832 -1436.224388 -2268.008064  -339.449714  1945.530341
0.010800  1842.388789  -466.123183 -2184.487894 -1261.713564  1165.814037  2179.318436
0.012000   567.014347 -1727.626012 -1941.277926   196.835242  2129.042169  1492.876969
0.013200  -984.419149 -2309.628127  -806.183123  1732.374823  2170.536618   -90.623067
0.014400 -2279.031188 -1657.115846  1046.958264  2469.303914   816.681308 -1878.768865
0.015600 -2233.025916   209.997244  2373.989001  1565.163180 -1166.081091 -2414.510931
0.016800  -661.637290  1871.238431  2048.195627  -275.284829 -2196.622882 -1403.464008
0.018000  1057.173657  2178.856408   661.147538 -1610.674412 -1908.630556    72.986354
0.019200  1948.802406  1476.775926  -767.526892 -2091.257309  -902.624401  1395.006072
0.020400  2039.501392   198.543959 -1930.253289 -1730.365756   611.473584  2248.698981
0.021600  1123.220727 -1434.202424 -2250.997993  -266.171562  2081.531519  1846.917401
0.022800  -704.721684 -2390.821099 -1098.543307  1557.811353  2256.998167   146.082300
0.024000 -2127.239050 -1740.502820   787.191395  2298.067643   959.916000 -1516.644313
0.025200 -2088.770427  -114.835170  1955.805499  1610.653748  -664.370659 -2092.053764
0.026400  -975.089177  1288.646538  1979.706592   284.572160 -1737.371523 -1658.357261
0.027600   416.433338  2006.608543  1171.382170 -1096.082191 -2054.880728  -522.920853
0.028800  1684.989621  1866.113448  -261.528269 -2113.819678 -1373.753584  1094.695929
0.030000  2238.041099   600.753886 -1808.902366 -1986.914450   321.473867  2243.423279
0.031200  1367.131684 -1219.002081 -2273.375371  -488.889427  1875.222090  1883.227995
0.032400  -426.993459 -2163.809022 -1212.877820  1199.078041  2087.887833   415.005326
0.033600 -1712.122621 -1710.914081   332.371684  1927.540020  1184.800421  -957.718855
0.034800 -1926.500450  -588.683233  1452.305557  1750.281857   -64.732131 -1816.246875
0.036000 -1390.838188   739.047159  2020.774634   839.367155 -1412.344286 -1965.221258
0.037200   -83.251007  1937.715062  1575.489695  -769.391671 -2189.659319  -885.972896
0.038400  1547.372259  2056.008546    -9.735760 -2055.717952 -1524.677106   897.484329
0.039600  2174.566123   744.145484 -1580.651334 -1913.122263   104.669858  1943.168331
0.040800  1368.504342  -847.395974 -1975.109929  -694.695895  1392.251007  1761.975644
0.042000     8.011848 -1718.197021 -1358.483264   621.242487  1849.393579   851.871686
0.043200 -1176.979635 -1793.056911  -239.124818  1628.408349  1532.344380  -442.046846
0.044400 -1916.243105 -1058.575160  1133.296781  1958.683024   359.051690 -1718.924100
0.045600 -1686.148723   450.874289  2051.036249  1106.961731 -1225.300832 -2038.739783
0.046800  -300.001969  1813.658242  1654.886809  -553.373130 -2051.431002  -987.984615
0.048000  1277.793249  1925.390159   197.424581 -1729.056067 -1504.957881   537.306697
0.049200  1872.288086   914.215465 -1113.625943 -1751.631288  -284.245570  1495.459919
0.050400  1469.742283  -318.376283 -1716.783185 -1051.859587   878.092068  1766.549559
0.051600   524.420362 -1385.315240 -1640.271340   114.857492  1777.656962  1277.364083
0.052800  -830.274775 -1949.215125  -662.305932  1488.696667  1808.287416  -135.236300
0.054000 -1935.268116 -1323.808560   951.860207  2035.322952   569.736420 -1590.089966
0.055200 -1752.723344   260.560738  1915.604536  1175.548124  -988.192532 -1885.295042
0.056400  -472.632351  1476.728691  1590.312846  -216.611330 -1713.851658 -1119.778944
0.057600   793.314906  1721.486706   584.355218 -1242.487613 -1572.382078    -9.427405
0.058800  1573.765701  1270.395269  -579.582849 -1760.062115  -803.870468  1158.892296
0.060000  1732.685926   179.447812 -1639.783953 -1459.499829   547.589346  1910.743120
0.061200   902.953654 -1243.692323 -1860.387910  -157.598619  1751.010154  1477.078656
0.062400  -640.608719 -1960.050653  -830.763241  1312.393561  1800.296216    56.522327
0.063600 -1730.279791 -1358.198016   663.147557  1828.847160   739.019415 -1217.511479
0.064800 -1652.444759   -84.511184  1541.478056  1283.499573  -506.903992 -1660.352829
0.066000  -811.772439  1000.786284  1612.168007   280.586632 -1392.081382 -1398.383023
0.067200   292.577076  1655.861353  1023.657812  -883.531647 -1746.310260  -462.536773
0.068400  1429.849206  1584.154959  -235.970126 -1796.400163 -1131.110845   967.757777
0.069600  1881.137405   441.115457 -1560.019108 -1606.177193   359.447769  1854.541745
0.070800  1033.255344 -1056.409030 -1804.123784  -310.352058  1526.372086  1449.678105
0.072000  -384.023308 -1695.237357  -915.152924   946.364442  1619.061883   337.291591
0.073200 -1315.544936 -1363.981475   214.320744  1517.631838  1004.518308  -713.843891
0.074400 -1582.667175  -543.099811  1165.971830  1489.838600    -4.433521 -1529.887080
0.075600 -1197.256745   622.395403  1720.926476   696.708174 -1225.596059 -1649.094543
0.076800   -11.554294  1661.550962  1269.622876  -711.849467 -1810.872660  -651.411627
0.078000  1321.413937  1640.838735   -77.372470 -1680.214663 -1178.370735   767.324491
0.079200  1732.004233   559.349334 -1272.471496 -1506.268432    95.963212  1539.392106
0.080400  1086.146585  -666.241852 -1575.729895  -583.197825  1091.401623  1434.439120
0.081600    57.518698 -1380.638992 -1155.112738   463.084682  1523.384819   748.473422
0.082800  -944.648325 -1519.063252  -246.992900  1361.604000  1328.055884  -353.519866
0.084000 -1632.891356  -907.625539   965.842500  1667.894062   292.547543 -1474.599766
0.085200 -1417.176073   418.678094  1737.830829   888.935217 -1069.357769 -1679.260886
0.086400  -191.534272  1513.659542  1320.675280  -494.714677 -1661.621564  -761.914512
0.087600  1044.852410  1529.515875   158.912242 -1360.585625 -1203.591099   385.296745
0.088800  1471.379360   778.168003  -831.862844 -1432.143370  -322.719618  1172.468527
0.090000  1267.438919  -162.300078 -1418.896752  -967.277147   678.809195  1533.487959
0.091200   518.246023 -1166.840322 -1449.385066    71.668749  1543.629870  1110.750344
0.092400  -726.308875 -1673.292508  -531.721360  1287.415829  1506.787326  -160.270165
0.093600 -1627.120555 -1059.773254   820.778127  1655.140371   428.394861 -1296.172561
0.094800 -1392.505131   209.816879  1515.537608   941.578767  -758.911510 -1497.070833
0.096000  -410.740045  1142.236822  1286.018124  -109.881214 -1349.579434  -962.844248
0.097200   568.514779  1414.502417   557.943128  -976.989101 -1341.500400   -79.190563
0.098400  1296.153023  1110.331371  -443.232616 -1484.963188  -715.384840   960.657932
0.099600  1487.085652   168.271930 -1382.062884 -1229.748811   467.848260  1603.774875
0.100800   746.401161 -1051.857841 -1539.386569   -99.404717  1455.296376  1186.813631
0.102000  -555.582793 -1586.911657  -640.674998  1074.012660  1434.184268    25.246111
0.103200 -1379.334913 -1061.338974   526.014254  1426.961986   590.262475  -935.517401
0.104400 -1305.127595  -113.109072  1187.745980  1053.273544  -339.821136 -1321.673410
0.105600  -722.570683   756.712617  1338.375760   300.439161 -1123.497597 -1207.321544
0.106800   196.127650  1392.277865   893.061372  -738.395613 -1489.765517  -379.669000
0.108000  1226.782764  1321.078847  -245.756533 -1517.489464  -895.850495   847.431300
