##TITLE=1D-13C-1-2-5-328-110-"no"-"yes"
##JCAMP-DX=5.01 $$ Magritek Spinsolve SPA1903 2.0.4.4423
##DATA TYPE=NMR FID
##DATA CLASS=NTUPLES
##ORIGIN=SPA1903 at Magritek
##OWNER=Copyright (C) 2025 by Magritek
##LONGDATE=2025/03/17 11:56:47.350
##.OBSERVE FREQUENCY=15.4860999900848
##.OBSERVE NUCLEUS=^13C
##.DELAY=( 20,  2000)
##.ACQUISITION MODE=SIMULTANEOUS
##.FIELD= 1.5
##.AVERAGES= 1
##.DIGITISER RES=16
##.SHIFT REFERENCE=(INTERNAL, Water, 4096, 0)
##$REFERENCE_POINT= 796.529    $$ Referencing label
$$      Distance of the zero axis position (in Hz) from the last data
$$      point (right edge); positive values -> right edge is below 0 Hz
##SPECTROMETER/DATA SYSTEM=Magritek
##SAMPLE DESCRIPTION=solvent=Water
$$ Bruker specific parameters
$$ --------------------------
##$AUNMP=   <proc_1d_nosref>
##$INSTRUM= <Magritek>
##$SI=      8192
##$TD=      8192
##$TDeff=   8192
##$SW=      322.870200
##$BF1=     15.4860999900848
##$SF=      15.4843965190859
##$LB=      0
##$PHC0=    217.5
##$PHC1=    0.0
##$REVERSE= yes
$$ End of Bruker specific parameters
$$ ---------------------------------
##NTUPLES=NMR FID
##VAR_NAME=        TIME,            FID/REAL,            FID/IMAG, PAGE NUMBER
##SYMBOL=             X,                   R,                   I,           N
##VAR_TYPE= INDEPENDENT,           DEPENDENT,           DEPENDENT,        PAGE
##VAR_FORM=        AFFN,                AFFN,                AFFN,        AFFN
##VAR_DIM=         8192,                8192,                8192,           2
##UNITS=        SECONDS,     ARBITRARY UNITS,     ARBITRARY UNITS,            
##FIRST=              0,                   0,                   0,           1
##LAST=    1.638199e+00,  -0.587185165281801,   0.267182963222175,           2
##MIN=                0,   -13758.3127665567,   -13009.6347392418,           1
##MAX=     1.638199e+00,    13228.4230537503,    14263.0193695701,           2
##FACTOR=             1,                   1,                   1,           1
##PAGE=N=1
##DATA TABLE=(X++(R..R)), XYDATA
0.000000     0.000000  5709.198449 -10521.539090 -13287.211771   630.698239 13228.423054
0.001200  9514.795021 -5802.392085 -13758.312767 -4697.452955  9883.171171 12010.681624
0.002400  -437.762071 -11943.570802 -8854.533387  4724.749361 12444.761321  5144.960017
0.003600 -8313.482803 -11642.427520  -876.367976 10892.427964  9488.319320 -3371.562226
0.004800 -12262.329785 -6331.973529  7489.821549 12346.387584  1979.692222 -11019.254559
0.006000 -10492.575010  3051.603204 12909.837052  6833.143538 -7775.627360 -12834.790203
0.007200 -1954.276927 11427.677612 10593.151953 -3445.754710 -13112.737770 -6411.042508
0.008400  8130.541153 12412.061190  1354.085217 -11164.070412 -9777.604952  3551.983703
0.009600 12290.305366  5843.305190 -7586.942097 -11455.662095 -1338.385961 10108.596137
0.010800  9109.403010 -2780.585136 -11130.586457 -6003.310575  6319.740007 10917.664337
0.012000  2257.111990 -9071.325326 -9378.181849  1601.976136 10675.107158  6906.199278
0.013200 -5363.035758 -11324.163264 -3385.046390  8944.021224 10321.118020 -1114.105326
0.014400 -11252.994299 -7548.091414  5558.326584 11948.007610  3476.379298 -9498.734937
0.015600 -10618.248016  1607.015636 11701.926745  7084.922374 -6187.196512 -11596.357579
0.016800 -2685.093997  9397.475517  9729.190349 -1933.993152 -10926.557100 -6286.038049
0.018000  5790.340476 10447.808361  2496.165196 -8191.181940 -8906.295596  1053.786587
0.019200  9659.190329  6539.950700 -4437.193029 -9982.711627 -3513.305084  7161.251267
0.020400  9294.981121   175.202015 -9375.256243 -7610.543499  3651.625624 10631.490583
0.021600  4501.477212 -7322.393610 -10187.561487  -417.265902 10008.968870  8082.254215
0.022800 -3984.290162 -11172.794154 -4398.163129  7873.097777 10263.701460  -129.036856
0.024000 -10228.686416 -7526.973390  4392.206182 10700.681578  3776.142570 -7643.639291
0.025200 -9493.885052   302.037337  9498.568599  6910.215463 -3965.982704 -9757.314233
0.026400 -3694.480086  6639.728371  8849.675729   410.263402 -8477.598665 -7070.445003
0.027600  2897.519582  9302.424675  4437.000713 -5756.363983 -9021.511146 -1403.192204
0.028800  8068.586787  7851.998282 -2102.397836 -9669.659166 -5322.618599  5685.320948
0.030000  9733.745751  1776.131423 -8479.255609 -8372.267991  2212.262966 10205.096389
0.031200  5421.538245 -6211.971400 -9982.705021 -1258.838554  8863.599559  7898.751406
0.032400 -2760.626865 -9879.397928 -4701.012279  6214.890050  9208.758516   807.427480
0.033600 -8247.356197 -6985.447785  2555.028542  8710.639629  4339.585538 -5134.876251
0.034800 -8312.265812 -1447.714927  7049.909937  6965.491902 -1418.026821 -8039.549165
0.036000 -5067.429310  4046.176921  8458.015045  2610.949162 -6643.581493 -7881.125670
0.037200   670.795752  8544.312145  5918.674041 -4117.738940 -9203.501072 -2853.705925
0.038400  7187.679759  8317.706950 -1020.030430 -9096.903005 -5729.176633  4769.013656
0.039600  9190.703985  2139.730582 -7418.363286 -7633.557305  1533.673214  8607.732373
0.040800  4962.665598 -4652.645454 -8308.722442 -1765.713163  6682.985633  6817.583032
0.042000 -1193.674919 -7551.082390 -4758.044020  3678.460626  7621.806833  2355.238948
0.043200 -5726.643896 -6840.365671   296.074041  7044.415161  5321.204580 -2858.802269
0.044400 -7724.518163 -3223.485323  5400.989927  7497.034189   273.354439 -7374.270138
0.045600 -5938.673142  2858.787384  8220.947000  3464.575966 -5717.564065 -7884.044615
0.046800  -118.916697  7848.396331  5918.622169 -3379.176163 -8337.821714 -2939.043499
0.048000  5992.696500  7433.442647  -348.941697 -7617.284606 -5301.500255  3482.769882
0.049200  7686.082374  2413.394047 -5514.093956 -6568.907445   225.962512  6619.888587
0.050400  4961.557064 -2642.069278 -6919.606703 -2818.033797  4532.432196  6399.500544
0.051600   679.657401 -5912.535386 -5521.599454  1620.614697  6996.583020  3862.918824
0.052800 -4157.169022 -7196.136055 -1369.248179  6297.038292  6303.044767 -1603.255346
0.054000 -7701.825426 -4202.547678  4681.623890  7735.243334  1038.913584 -6939.174828
0.055200 -6167.330195  2273.568272  7765.025946  3543.317366 -4976.980065 -7164.947284
0.056400  -488.107412  6598.767854  5409.225219 -2296.744575 -6931.472927 -3075.766011
0.057600  4294.480957  6318.674620   801.013369 -5559.064812 -5217.747052  1367.251134
0.058800  6275.947996  3617.172196 -3376.744866 -6319.057662 -1690.092131  5048.562396
0.060000  5821.269057  -539.923307 -6452.614133 -4479.083182  3160.384859  6976.321722
0.061200  2159.631274 -5393.573927 -6356.704002   572.151261  6929.505080  4694.864423
0.062400 -3523.332097 -7345.511600 -1904.215647  5843.276054  6206.092364 -1075.442004
0.063600 -6912.533600 -4172.123078  3704.086965  6907.926071  1492.085343 -5620.714695
0.064800 -5590.380782  1205.814298  6249.034029  3652.698947 -3214.811517 -6094.875725
0.066000 -1606.386434  4739.766666  5244.021180  -546.718014 -5535.765650 -3872.765219
0.067200  2339.961269  5795.319462  2363.108775 -4033.747870 -5671.563674  -334.891658
0.068400  5542.902763  4676.010145 -1984.813351 -6337.957488 -2927.589314  4249.500392
0.069600  6300.292742   428.988091 -6121.530835 -4995.572822  2465.273569  6815.912557
0.070800  2587.423712 -4837.129462 -6133.937264   231.161177  6198.876032  4354.053285
0.072000 -2837.702608 -6309.405488 -1918.904106  4627.248292  5285.713116  -429.211184
0.073200 -5370.057922 -3730.845273  2258.875037  5390.662531  2062.351888 -3647.798184
0.074400 -4932.226941  -320.874604  4634.357094  4052.303570 -1363.391515 -5223.537600
0.075600 -2866.093567  3087.171246  5457.675536  1088.374913 -4796.211146 -4806.831772
0.076800  1196.070552  5799.247752  3253.809569 -3409.240090 -5941.736058 -1015.033518
0.078000  5301.063594  4951.979311 -1656.730286 -6100.287340 -2865.731930  3837.641770
0.079200  5690.520216   509.917315 -5243.862482 -4432.003192  1857.580245  5678.083811
0.080400  2384.206526 -3652.361628 -5027.287254  -374.098227  4559.174530  3948.755185
0.081600 -1384.259346 -4973.052408 -2492.490289  2919.733612  4711.583311   905.972106
0.082800 -3905.480445 -4097.188233   596.541988  4692.069317  3169.200776 -2310.536788
0.084000 -5076.986745 -1631.372412  3889.483926  4740.486366  -255.022142 -5097.838724
0.085200 -3706.332812  2428.784290  5664.223091  1767.559621 -4420.789104 -5057.344011
0.086400   666.715255  5533.799144  3454.386144 -2926.228906 -5585.317600 -1235.359461
0.087600  4566.717142  4554.282587 -1071.017504 -5161.130018 -2799.646623  2822.683439
0.088800  4793.322946   980.510085 -3823.514359 -3929.965185   598.494257  4290.679285
0.090000  2825.732128 -1942.830567 -4350.098516 -1616.763056  3021.368761  4134.533461
0.091200   329.108947 -4034.509273 -3623.278972  1325.860901  4825.428263  2392.493383
0.092400 -3106.178353 -4848.203668  -569.117016  4552.699059  4090.977945 -1588.863412
0.093600 -5384.184096 -2355.877096  3676.815463  5001.305725    38.689226 -4858.379371
0.094800 -3657.388106  2028.153763  5121.518237  1815.342784 -3669.514131 -4443.631027
0.096000   271.379041  4414.263077  3051.570257 -1838.714144 -4357.678223 -1655.018542
0.097200  2961.010084  3948.482789   170.397718 -3716.906617 -3080.711253  1165.380839
0.098400  3971.124888  2099.158782 -2306.883412 -4061.363590  -886.037551  3495.657496
0.099600  3649.450547  -705.655862 -4259.017421 -2634.722608  2290.500751  4520.935123
0.100800  1154.620213 -3799.689976 -4063.694673   849.110757  4744.101334  2662.362512
0.102000 -2765.576672 -4706.624021  -738.563419  4128.088390  3786.850404 -1293.652414
0.103200 -4670.950548 -2144.054363  2968.109734  4223.951842   259.746965 -3833.322205
0.104400 -3104.761673  1301.973602  3945.916323  1787.591664 -2400.954714 -3584.034865
0.105600  -504.265403  3070.993611  2937.692444  -623.577763 -3407.808709 -2200.082361
0.106800  1641.014882  3636.176280  1280.435112 -2772.957375 -3551.601625    79.792132
0.108000  3736.635676  2829.958756 -1650.930896 -4222.466623 -1549.698380  3214.576163
