##TITLE=1D-13C-1-2-5-328-110-"no"-"yes"
##JCAMP-DX=5.01 $$ Magritek Spinsolve SPA1903 2.0.4.4423
##DATA TYPE=NMR FID
##DATA CLASS=NTUPLES
##ORIGIN=SPA1903 at Magritek
##OWNER=Copyright (C) 2025 by Magritek
##LONGDATE=2025/03/17 11:59:38.217
##.OBSERVE FREQUENCY=15.4860999900848
##.OBSERVE NUCLEUS=^13C
##.DELAY=( 20,  2000)
##.ACQUISITION MODE=SIMULTANEOUS
##.FIELD= 1.5
##.AVERAGES= 1
##.DIGITISER RES=16
##.SHIFT REFERENCE=(INTERNAL, Water, 4096, 0)
##$REFERENCE_POINT= 796.529    $$ Referencing label
$$      Distance of the zero axis position (in Hz) from the last data
$$      point (right edge); positive values -> right edge is below 0 Hz
##SPECTROMETER/DATA SYSTEM=Magritek
##SAMPLE DESCRIPTION=solvent=Water
$$ Bruker specific parameters
$$ --------------------------
##$AUNMP=   <proc_1d_nosref>
##$INSTRUM= <Magritek>
##$SI=      8192
##$TD=      8192
##$TDeff=   8192
##$SW=      322.870200
##$BF1=     15.4860999900848
##$SF=      15.4843965190859
##$LB=      0
##$PHC0=    217.1
##$PHC1=    0.0
##$REVERSE= yes
$$ End of Bruker specific parameters
$$ ---------------------------------
##NTUPLES=NMR FID
##VAR_NAME=        TIME,            FID/REAL,            FID/IMAG, PAGE NUMBER
##SYMBOL=             X,                   R,                   I,           N
##VAR_TYPE= INDEPENDENT,           DEPENDENT,           DEPENDENT,        PAGE
##VAR_FORM=        AFFN,                AFFN,                AFFN,        AFFN
##VAR_DIM=         8192,                8192,                8192,           2
##UNITS=        SECONDS,     ARBITRARY UNITS,     ARBITRARY UNITS,            
##FIRST=              0,                   0,                   0,           1
##LAST=    1.638199e+00,  -0.426860603738649,   0.651165398652279,           2
##MIN=                0,   -3226.59710335132,   -3144.59066375258,           1
##MAX=     1.638199e+00,    3119.64819599816,    3361.22696621269,           2
##FACTOR=             1,                   1,                   1,           1
##PAGE=N=1
##DATA TABLE=(X++(R..R)), XYDATA
0.000000     0.000000  1341.394278 -2445.732234 -3128.817660   134.595155  3119.255511
0.001200  2233.382519 -1381.450500 -3226.597103 -1085.367125  2308.848752  2807.117435
0.002400   -92.446575 -2802.076855 -2089.349556  1108.786291  2927.103303  1216.206756
0.003600 -1935.750258 -2738.011709  -248.149118  2546.794918  2277.817030  -750.402542
0.004800 -2904.462925 -1553.456432  1742.492512  2961.633503   545.780967 -2600.850720
0.006000 -2575.952316   657.875845  3119.648196  1729.174749 -1845.968814 -3153.008265
0.007200  -535.031844  2760.902302  2625.914388  -784.097344 -3206.138775 -1626.504739
0.008400  1950.734774  3069.125171   389.550103 -2728.732044 -2439.010671   826.082539
0.009600  3009.020255  1483.218316 -1813.651515 -2834.204538  -400.828839  2453.435714
0.010800  2290.693802  -611.662968 -2729.231832 -1549.776811  1484.399066  2714.112549
0.012000   677.079769 -2179.668824 -2411.239544   275.010599  2656.346734  1836.721523
0.013200 -1258.608095 -2879.327234  -968.989540  2188.935872  2688.239480  -152.815911
0.014400 -2846.177557 -2032.482207  1329.358579  3078.656004   993.614870 -2360.345636
0.015600 -2763.934705   288.948468  2967.968943  1924.019190 -1488.783348 -2999.526516
0.016800  -795.082558  2340.315696  2542.660303  -368.283058 -2749.877159 -1725.180284
0.018000  1352.020431  2710.668456   790.417569 -2034.150292 -2368.726043   126.606806
0.019200  2450.212458  1822.684925  -992.455726 -2608.416443 -1093.673158  1765.729191
0.020400  2523.924740   208.028998 -2412.510456 -2127.807652   799.381680  2804.627671
0.021600  1358.473055 -1815.699976 -2774.695760  -287.516866  2600.364904  2272.040953
0.022800  -901.848635 -2968.560643 -1328.270643  1966.245974  2797.651962   144.799622
0.024000 -2661.175011 -2132.204240  1011.178249  2855.947336  1165.748797 -1907.984371
0.025200 -2591.121363  -104.813839  2452.219042  1976.900161  -867.455597 -2604.530748
0.026400 -1179.562677  1635.134326  2453.937826   314.712598 -2188.235739 -2045.977563
0.027600   562.477421  2503.777112  1421.057004 -1395.770557 -2551.229342  -607.392647
0.028800  2113.551078  2291.670756  -368.180850 -2629.808251 -1664.003859  1395.429663
0.030000  2771.268616   709.566188 -2267.689438 -2441.228100   434.209430  2786.533325
0.031200  1663.524629 -1541.885495 -2809.852629  -563.623767  2353.089183  2313.187002
0.032400  -571.807068 -2700.242047 -1475.335916  1524.306720  2583.528603   473.220732
0.033600 -2147.795196 -2098.455047   456.678015  2397.859594  1434.308784 -1227.414302
0.034800 -2385.339466  -680.240470  1830.287992  2138.665722  -127.467622 -2263.202359
0.036000 -1690.873065   952.493513  2494.470647   998.674786 -1774.425186 -2409.929700
0.037200   -56.067289  2420.092429  1917.458124  -991.129497 -2710.996664 -1051.894081
0.038400  1945.328206  2520.373880   -64.841174 -2558.377856 -1849.185883  1153.226809
0.039600  2691.954033   878.503441 -1981.792607 -2341.160959   179.292014  2421.526502
0.040800  1658.922629 -1094.721045 -2446.520666  -811.811160  1757.643875  2156.568445
0.042000   -37.427432 -2147.786301 -1650.298368   816.184304  2285.741578  1010.062641
0.043200 -1495.788632 -2201.995140  -243.461389  2028.763753  1856.599590  -592.848444
0.044400 -2362.950059 -1255.980053  1436.823112  2398.736090   391.672441 -2137.086276
0.045600 -2045.302413   605.215268  2529.514355  1318.063367 -1554.792758 -2501.192845
0.046800  -325.149638  2259.919708  2012.251213  -740.562663 -2534.019606 -1172.052859
0.048000  1610.628620  2365.220963   204.050708 -2158.538360 -1830.112988   720.462698
0.049200  2319.649571  1079.144975 -1414.895494 -2154.162440  -297.665602  1880.674191
0.050400  1775.105421  -449.230316 -2121.379795 -1244.253909  1133.870519  2162.453401
0.051600   587.911486 -1727.851998 -1986.845070   198.367194  2199.064767  1520.748533
0.052800 -1065.244236 -2388.973867  -757.991610  1859.683587  2201.000231  -215.506344
0.054000 -2392.251260 -1584.069676  1221.278995  2495.074631   648.764533 -1995.090837
0.055200 -2134.525674   374.772393  2371.004842  1402.342541 -1262.778594 -2316.604624
0.056400  -521.664732  1855.025131  1918.079261  -325.696332 -2115.271927 -1327.648919
0.057600  1034.128715  2118.787940   659.187136 -1566.648422 -1908.125859    41.045861
0.058800  1954.023225  1522.884080  -768.728733 -2155.384813  -928.469157  1461.523144
0.060000  2111.235760   160.843292 -2035.644372 -1747.460652   724.624821  2337.497649
0.061200  1051.105015 -1567.422543 -2254.468570  -134.669544  2175.118522  1780.447289
0.062400  -841.274161 -2405.226279  -965.485167  1659.571520  2197.625066    16.812470
0.063600 -2140.760993 -1629.117417   865.901070  2254.925647   861.846803 -1540.474305
0.064800 -2007.900372   -41.989062  1926.693482  1534.478671  -683.226981 -2043.665600
0.066000  -940.725859  1278.294023  1950.505212   276.678538 -1736.087914 -1664.922097
0.067200   415.815608  2026.383243  1194.616522 -1128.929865 -2111.752963  -500.975878
0.068400  1778.353099  1895.417292  -354.339784 -2209.588878 -1336.740292  1227.025213
0.069600  2285.264241   478.005601 -1937.715370 -1926.997015   492.489241  2283.385825
0.070800  1208.381096 -1343.376910 -2190.892330  -320.809256  1903.663951  1742.024632
0.072000  -537.617717 -2090.789068 -1068.973331  1210.164536  1967.192071   350.815183
0.073200 -1645.794086 -1635.452948   322.726130  1870.011585  1169.731408  -935.246469
0.074400 -1921.680241  -599.010956  1467.780104  1786.479338   -78.915376 -1882.360292
0.075600 -1410.252095   819.990769  2088.630585   787.729787 -1527.935072 -1978.834642
0.076800    46.125032  2043.397426  1500.083071  -922.515546 -2206.383888  -738.602472
0.078000  1653.416161  1975.304102  -167.452333 -2078.793537 -1388.800242   995.519315
0.079200  2107.749708   617.069131 -1596.460782 -1807.814707   182.950726  1899.782891
0.080400  1279.255776  -873.038280 -1918.287493  -643.942455  1372.780186  1712.678351
0.081600    -3.153877 -1708.275075 -1354.263305   633.289752  1857.411994   850.081077
0.082800 -1200.658738 -1817.723336  -229.213954  1677.866670  1567.909766  -491.592361
0.084000 -1992.256604 -1039.670990  1225.973964  2004.647795   291.106299 -1817.008402
0.085200 -1679.258908   571.206696  2126.850762  1022.107369 -1356.202065 -2030.373395
0.086400  -167.171316  1877.083652  1565.902696  -667.181568 -2035.238054  -873.912331
0.087600  1322.905080  1843.318855   117.601762 -1695.521440 -1418.521309   542.423441
0.088800  1805.039186   887.432963 -1068.093001 -1721.453729  -314.081295  1464.687664
0.090000  1491.284347  -273.113472 -1731.538636 -1111.437201   878.844253  1843.999129
0.091200   566.041605 -1451.593777 -1719.255026   155.486757  1889.781467  1295.106177
0.092400  -941.058900 -2028.176238  -585.217030  1601.784631  1793.959296  -260.713858
0.093600 -1989.079428 -1225.872441  1057.972059  1997.412897   446.191134 -1616.254976
0.094800 -1650.541736   334.105679  1863.613661  1089.221040  -980.493185 -1806.307023
0.096000  -430.206282  1431.058273  1528.404674  -203.174998 -1650.371849 -1106.179415
0.097200   762.789541  1711.661432   605.706206 -1236.428147 -1592.466783   -21.390712
0.098400  1592.324196  1290.374552  -597.345690 -1798.053587  -809.614087  1212.158914
0.099600  1765.242249   127.238777 -1701.575247 -1437.466080   627.665284  1936.743270
0.100800   836.465707 -1321.055283 -1838.642571   -51.464707  1796.603610  1391.896074
0.102000  -741.890334 -1925.832375  -704.465066  1360.744916  1715.209684   -46.191251
0.103200 -1698.319695 -1234.858337   710.920186  1737.988670   643.210588 -1189.143316
0.104400 -1552.994462   -51.855454  1476.153836  1221.658632  -483.600150 -1600.528567
0.105600  -798.172672   966.873806  1591.156912   289.902172 -1391.887762 -1404.089674
0.106800   304.150430  1687.194230  1017.219282  -947.030340 -1780.278681  -399.952376
0.108000  1514.520100  1555.826380  -359.930205 -1841.485733 -1018.457991  1085.592634
