##TITLE=1D-13C-1-2-5-328-110-"no"-"yes"
##JCAMP-DX=5.01 $$ Magritek Spinsolve SPA1903 2.0.4.4423
##DATA TYPE=NMR FID
##DATA CLASS=NTUPLES
##ORIGIN=SPA1903 at Magritek
##OWNER=Copyright (C) 2025 by Magritek
##LONGDATE=2025/03/17 11:59:30.640
##.OBSERVE FREQUENCY=15.4860999900848
##.OBSERVE NUCLEUS=^13C
##.DELAY=( 20,  2000)
##.ACQUISITION MODE=SIMULTANEOUS
##.FIELD= 1.5
##.AVERAGES= 1
##.DIGITISER RES=16
##.SHIFT REFERENCE=(INTERNAL, Water, 4096, 0)
##$REFERENCE_POINT= 796.529    $$ Referencing label
$$      Distance of the zero axis position (in Hz) from the last data
$$      point (right edge); positive values -> right edge is below 0 Hz
##SPECTROMETER/DATA SYSTEM=Magritek
##SAMPLE DESCRIPTION=solvent=Water
$$ Bruker specific parameters
$$ --------------------------
##$AUNMP=   <proc_1d_nosref>
##$INSTRUM= <Magritek>
##$SI=      8192
##$TD=      8192
##$TDeff=   8192
##$SW=      322.870200
##$BF1=     15.4860999900848
##$SF=      15.4843965190859
##$LB=      0
##$PHC0=    216.9
##$PHC1=    0.0
##$REVERSE= yes
$$ End of Bruker specific parameters
$$ ---------------------------------
##NTUPLES=NMR FID
##VAR_NAME=        TIME,            FID/REAL,            FID/IMAG, PAGE NUMBER
##SYMBOL=             X,                   R,                   I,           N
##VAR_TYPE= INDEPENDENT,           DEPENDENT,           DEPENDENT,        PAGE
##VAR_FORM=        AFFN,                AFFN,                AFFN,        AFFN
##VAR_DIM=         8192,                8192,                8192,           2
##UNITS=        SECONDS,     ARBITRARY UNITS,     ARBITRARY UNITS,            
##FIRST=              0,                   0,                   0,           1
##LAST=    1.638199e+00,  -0.361644834601428,   0.613555623123077,           2
##MIN=                0,   -3415.51209874401,   -3335.41602455919,           1
##MAX=     1.638199e+00,    3307.44121173815,    3559.36704139058,           2
##FACTOR=             1,                   1,                   1,           1
##PAGE=N=1
##DATA TABLE=(X++(R..R)), XYDATA
0.000000     0.000000  1432.413021 -2595.692188 -3321.544490   145.309104  3307.441212
0.001200  2368.500078 -1463.408173 -3415.512099 -1156.365091  2448.361293  2981.202168
0.002400   -90.623096 -2969.463951 -2221.785833  1166.092269  3097.938343  1292.239624
0.003600 -2039.023224 -2901.246546  -271.151105  2695.773905  2418.327106  -783.984347
0.004800 -3083.989050 -1651.028929  1844.803799  3140.302936   583.535900 -2746.843627
0.006000 -2725.928057   693.702921  3305.594013  1838.160990 -1945.492933 -3343.065639
0.007200  -571.899864  2924.194661  2778.960046  -821.614084 -3377.893202 -1724.608979
0.008400  2057.824907  3254.400171   420.033999 -2877.170351 -2578.490805   872.148894
0.009600  3187.029259  1567.687766 -1913.091958 -2995.042719  -432.004522  2594.788426
0.010800  2432.308838  -640.069178 -2889.038692 -1645.290479  1564.859672  2871.889291
0.012000   720.769465 -2304.149287 -2556.857806   292.200357  2816.714459  1943.928381
0.013200 -1331.313270 -3046.133239 -1035.601394  2309.232491  2851.071512  -151.625634
0.014400 -3010.665779 -2154.175817  1403.606787  3256.558578  1052.603207 -2494.720934
0.015600 -2929.804050   303.179806  3130.731751  2034.569512 -1565.776823 -3180.521586
0.016800  -850.797864  2475.466540  2693.973391  -387.323565 -2914.174605 -1836.286950
0.018000  1423.410369  2867.496304   833.671544 -2142.872119 -2504.914720   126.935822
0.019200  2583.518595  1926.431938 -1048.064543 -2762.160827 -1157.340034  1861.032725
0.020400  2670.356617   232.656714 -2546.586768 -2246.737210   850.228682  2963.673402
0.021600  1431.595174 -1911.623162 -2935.824977  -308.580101  2747.881421  2399.139711
0.022800  -954.417651 -3133.350028 -1404.423710  2080.803371  2954.626187   152.404184
0.024000 -2806.922123 -2260.647422  1060.901114  3018.342022  1233.502917 -2022.384761
0.025200 -2735.820903  -107.433496  2589.798178  2095.964623  -911.523598 -2754.590262
0.026400 -1249.003825  1724.309371  2587.850715   334.099635 -2308.812499 -2161.768424
0.027600   592.069062  2637.198796  1498.159999 -1473.414389 -2696.127039  -639.902835
0.028800  2233.452422  2416.117013  -390.872084 -2776.192869 -1758.864946  1471.814581
0.030000  2922.895951   739.720732 -2395.388764 -2578.521732   458.178325  2946.782099
0.031200  1756.300135 -1630.443690 -2970.274295  -602.040550  2480.434259  2446.588662
0.032400  -602.691103 -2850.858021 -1557.180823  1607.013128  2728.321690   497.750930
0.033600 -2266.893844 -2223.444272   480.181045  2536.974546  1512.381395 -1298.039508
0.034800 -2522.949650  -720.621526  1935.798156  2261.331630  -129.912790 -2385.731052
0.036000 -1786.226052  1003.714534  2630.165026  1050.192105 -1874.238449 -2539.756012
0.037200   -59.229917  2547.809939  2021.398044 -1044.108084 -2859.798539 -1109.907618
0.038400  2051.029338  2656.619105   -65.258763 -2705.732869 -1953.703813  1220.872302
0.039600  2839.539521   924.309435 -2093.394191 -2469.100265   190.627218  2555.642141
0.040800  1744.797614 -1156.430707 -2580.521768  -859.041155  1853.802768  2270.381503
0.042000   -41.082841 -2255.416538 -1735.149979   857.556466  2416.312816  1052.642875
0.043200 -1582.130185 -2316.392916  -253.522641  2137.761775  1950.193879  -625.655727
0.044400 -2490.270614 -1325.867160  1511.262799  2532.298028   415.964195 -2257.727728
0.045600 -2152.504612   641.852656  2665.427391  1386.767072 -1638.406376 -2639.268975
0.046800  -340.604531  2386.140660  2117.670633  -778.393134 -2672.484297 -1237.798393
0.048000  1700.122883  2493.798494   208.055648 -2280.704242 -1923.329600   762.037096
0.049200  2447.952077  1138.886750 -1495.045269 -2262.795299  -307.993762  1980.086781
0.050400  1874.237705  -478.189099 -2243.143851 -1313.583901  1192.842781  2278.674411
0.051600   620.604468 -1826.180414 -2093.917647   202.752039  2310.767489  1608.092010
0.052800 -1117.208820 -2514.697880  -802.846465  1959.021770  2316.097456  -229.723101
0.054000 -2520.649972 -1672.291329  1286.139616  2632.584294   681.395230 -2104.626581
0.055200 -2245.710942   399.800035  2501.201524  1477.761154 -1333.776039 -2443.329073
0.056400  -547.560821  1954.023585  2024.694012  -345.668354 -2238.334995 -1401.179073
0.057600  1084.349788  2224.364849   689.797362 -1651.416056 -2008.202684    47.581954
0.058800  2065.636909  1600.148584  -812.463264 -2264.973733  -976.592103  1538.856854
0.060000  2224.328681   172.569931 -2143.583290 -1840.435292   769.355779  2466.675355
0.061200  1108.899188 -1656.560583 -2379.427370  -138.510521  2291.685917  1870.121866
0.062400  -889.323816 -2530.320055 -1013.643708  1750.114192  2308.240904     6.077537
0.063600 -2259.319524 -1709.997976   913.245357  2369.494723   901.955389 -1630.568509
0.064800 -2112.986545   -36.649745  2025.053692  1607.082792  -725.486804 -2149.986210
0.066000  -987.128640  1348.520341  2052.369833   286.707122 -1830.488727 -1748.872053
0.067200   445.785115  2134.662134  1252.153093 -1193.504694 -2228.429548  -525.088149
0.068400  1875.649929  1997.425832  -372.132130 -2321.598719 -1399.311643  1293.917982
0.069600  2398.034403   500.190082 -2039.780844 -2031.117443   518.758644  2405.213899
0.070800  1278.395095 -1418.588421 -2312.690933  -334.064028  2005.657092  1825.721700
0.072000  -570.928704 -2201.328537 -1116.743784  1282.571676  2068.361507   363.370423
0.073200 -1734.645454 -1712.040631   346.250900  1966.577946  1228.745602  -978.182518
0.074400 -2019.352709  -630.889423  1544.552742  1872.340295   -81.005973 -1981.323697
0.075600 -1483.161761   865.748489  2197.397780   823.960338 -1615.742313 -2079.125080
0.076800    56.823193  2146.197801  1577.650087  -972.352004 -2321.282006  -770.418277
0.078000  1742.248342  2073.478744  -180.216593 -2184.276906 -1459.626347  1054.335330
0.079200  2216.333726   639.738817 -1684.219361 -1901.215766   200.066211  2001.355561
0.080400  1337.113261  -923.207935 -2017.207094  -671.996462  1446.715201  1799.804438
0.081600    -7.838031 -1792.638578 -1416.941645   665.698635  1953.185890   887.318704
0.082800 -1265.163715 -1907.702791  -235.490299  1763.160151  1640.591888  -517.823978
0.084000 -2090.956569 -1086.841912  1290.692761  2103.903955   305.922382 -1912.554001
0.085200 -1767.425389   596.820845  2227.328429  1068.024215 -1428.481313 -2128.829366
0.086400  -171.719942  1975.735626  1644.931196  -710.948204 -2139.445509  -911.937557
0.087600  1390.852508  1933.723470   116.802185 -1783.399614 -1481.628313   579.493207
0.088800  1889.991583   925.643083 -1126.640641 -1805.754636  -325.812218  1535.160778
0.090000  1564.335121  -290.514584 -1820.738330 -1166.773733   924.720088  1933.870399
0.091200   585.447930 -1526.851964 -1803.557008   163.559479  1979.622072  1358.471230
0.092400  -986.319900 -2125.862402  -610.653427  1681.848765  1885.475188  -273.308789
0.093600 -2083.969206 -1287.989292  1110.713889  2096.687426   464.566746 -1704.396026
0.094800 -1734.782152   354.970830  1957.493126  1139.304949 -1040.035186 -1902.051170
0.096000  -446.215345  1503.626119  1598.820374  -217.406984 -1739.075962 -1163.207341
0.097200   797.090736  1793.659571   630.837795 -1293.611651 -1664.127561   -17.705063
0.098400  1670.721467  1347.739948  -626.454874 -1879.581365  -839.417877  1272.160129
0.099600  1847.574389   134.176491 -1784.251496 -1499.922209   663.961700  2031.420606
0.100800   875.788366 -1391.051612 -1927.613311   -50.838819  1888.064376  1454.862954
0.102000  -788.657291 -2022.473196  -735.103840  1433.995092  1791.930684   -53.259017
0.103200 -1780.623162 -1293.678167   746.910076  1824.815890   669.483367 -1252.740271
0.104400 -1621.369763   -44.303560  1554.007168  1277.394560  -518.790743 -1677.897135
0.105600  -829.853784  1017.864566  1662.254482   300.104390 -1453.275450 -1468.375923
0.106800   326.373544  1768.057249  1054.458253  -995.324961 -1858.351591  -409.263892
0.108000  1590.513062  1625.819871  -383.587477 -1932.366203 -1062.726985  1140.176452
