##TITLE=1D-13C-1-2-5-328-110-"no"-"yes"
##JCAMP-DX=5.01 $$ Magritek Spinsolve SPA1903 2.0.4.4423
##DATA TYPE=NMR FID
##DATA CLASS=NTUPLES
##ORIGIN=SPA1903 at Magritek
##OWNER=Copyright (C) 2025 by Magritek
##LONGDATE=2025/03/17 11:57:23.255
##.OBSERVE FREQUENCY=15.4860999900848
##.OBSERVE NUCLEUS=^13C
##.DELAY=( 20,  2000)
##.ACQUISITION MODE=SIMULTANEOUS
##.FIELD= 1.5
##.AVERAGES= 1
##.DIGITISER RES=16
##.SHIFT REFERENCE=(INTERNAL, Water, 4096, 0)
##$REFERENCE_POINT= 796.529    $$ Referencing label
$$      Distance of the zero axis position (in Hz) from the last data
$$      point (right edge); positive values -> right edge is below 0 Hz
##SPECTROMETER/DATA SYSTEM=Magritek
##SAMPLE DESCRIPTION=solvent=Water
$$ Bruker specific parameters
$$ --------------------------
##$AUNMP=   <proc_1d_nosref>
##$INSTRUM= <Magritek>
##$SI=      8192
##$TD=      8192
##$TDeff=   8192
##$SW=      322.870200
##$BF1=     15.4860999900848
##$SF=      15.4843965190859
##$LB=      0
##$PHC0=    217.4
##$PHC1=    0.0
##$REVERSE= yes
$$ End of Bruker specific parameters
$$ ---------------------------------
##NTUPLES=NMR FID
##VAR_NAME=        TIME,            FID/REAL,            FID/IMAG, PAGE NUMBER
##SYMBOL=             X,                   R,                   I,           N
##VAR_TYPE= INDEPENDENT,           DEPENDENT,           DEPENDENT,        PAGE
##VAR_FORM=        AFFN,                AFFN,                AFFN,        AFFN
##VAR_DIM=         8192,                8192,                8192,           2
##UNITS=        SECONDS,     ARBITRARY UNITS,     ARBITRARY UNITS,            
##FIRST=              0,                   0,                   0,           1
##LAST=    1.638199e+00,   0.474275232294983,  -0.443190230038749,           2
##MIN=                0,   -10166.6812863195,   -9604.83109410872,           1
##MAX=     1.638199e+00,    9804.92199174574,    10554.1446062455,           2
##FACTOR=             1,                   1,                   1,           1
##PAGE=N=1
##DATA TABLE=(X++(R..R)), XYDATA
0.000000     0.000000  4218.810305 -7766.469903 -9827.898229   468.931689  9804.921992
0.001200  7024.157674 -4325.150346 -10166.681286 -3441.967415  7317.877937  8868.536972
0.002400  -330.643694 -8835.330446 -6536.005832  3513.662025  9199.894678  3790.060974
0.003600 -6144.436650 -8602.845858  -661.483318  8052.525264  7050.092877 -2478.033410
0.004800 -9100.878683 -4718.645362  5541.919957  9179.016862  1514.094191 -8164.584566
0.006000 -7844.518152  2222.848215  9638.158203  5156.231674 -5787.606986 -9623.572874
0.007200 -1489.416147  8546.755057  7949.624045 -2550.690423 -9829.181261 -4839.047716
0.008400  6079.823109  9332.394475  1043.038212 -8388.615053 -7356.797373  2649.602687
0.009600  9217.360416  4399.924834 -5676.495950 -8612.439977 -1038.552422  7583.117708
0.010800  6869.113127 -2058.230226 -8360.276586 -4544.224571  4703.155160  8221.660995
0.012000  1773.915497 -6791.485553 -7130.935234  1129.115145  8056.326804  5284.995003
0.013200 -4003.453090 -8587.197236 -2646.968092  6718.111940  7878.008492  -748.322044
0.014400 -8541.045414 -5814.377934  4174.856080  9116.412248  2711.348717 -7183.346612
0.015600 -8115.647397  1140.270098  8894.980599  5478.316151 -4655.535113 -8869.482888
0.016800 -2114.474665  7126.612549  7442.981334 -1391.164928 -8288.511303 -4877.319423
0.018000  4318.738991  7998.398355  2003.544907 -6207.741190 -6845.131685   710.939711
0.019200  7341.207529  5079.626526 -3282.682741 -7648.384244 -2812.186362  5416.747074
0.020400  7187.895428   249.856744 -7161.878185 -5930.002041  2687.745343  8164.728956
0.021600  3581.315009 -5543.715931 -7905.546397  -454.402526  7671.424084  6321.188788
0.022800 -2957.826452 -8610.276704 -3500.456101  5979.894089  7964.831318    34.663975
0.024000 -7853.779949 -5916.394925  3283.892367  8277.615010  3032.656469 -5818.423946
0.025200 -7374.775413   101.161879  7276.555279  5444.680296 -2934.354129 -7552.271258
0.026400 -2984.351686  5047.895992  6903.557887   451.284498 -6496.366321 -5577.091891
0.027600  2084.580516  7211.303013  3607.714519 -4353.567047 -7083.462301 -1251.229818
0.028800  6218.157091  6215.361828 -1487.901012 -7518.814796 -4297.068549  4309.930116
0.030000  7666.103578  1542.188848 -6582.176157 -6630.352673  1607.054561  7953.477888
0.031200  4356.440091 -4734.289785 -7843.279912 -1144.619698  6869.226078  6273.103282
0.032400 -2034.533549 -7704.863226 -3791.082178  4721.684606  7228.478843   813.820607
0.033600 -6360.763076 -5588.928151  1827.750655  6818.335154  3561.200984 -3892.461890
0.034800 -6575.331055 -1328.413409  5443.024288  5609.442117  -923.705962 -6333.814866
0.036000 -4173.909321  3068.812007  6741.124025  2228.420872 -5173.769061 -6336.927989
0.037200   363.268493  6744.638604  4836.938204 -3142.658475 -7342.495220 -2415.106809
0.038400  5622.849603  6674.892369  -659.687509 -7177.968000 -4685.406357  3634.816348
0.039600  7324.131845  1868.974265 -5795.928599 -6162.450854  1042.228574  6790.268096
0.040800  4092.251155 -3522.700817 -6640.241397 -1613.580787  5197.343036  5550.708406
0.042000  -748.323485 -5987.228900 -3961.557778  2764.393291  6117.404514  2097.668019
0.043200 -4447.848050 -5605.123544    16.216226  5621.778730  4454.804155 -2127.861083
0.044400 -6236.886372 -2780.492346  4214.690752  6132.062322   435.170903 -5891.375803
0.045600 -4958.412105  2140.250119  6668.031348  2965.020604 -4500.769362 -6434.455914
0.046800  -292.244483  6250.820249  4928.955604 -2534.670903 -6750.236071 -2560.923395
0.048000  4711.919175  6078.885239   -73.317675 -6039.903786 -4429.985480  2580.416907
0.049200  6206.043761  2194.312146 -4286.734423 -5427.687556   -63.679620  5264.115449
0.050400  4193.884483 -1893.734884 -5615.642196 -2555.860334  3505.982139  5339.885936
0.051600   802.590262 -4747.925662 -4679.962436  1115.727773  5721.294537  3365.334990
0.052800 -3233.129419 -5965.811987 -1333.878674  5070.330861  5290.531057 -1124.201955
0.054000 -6272.380809 -3602.238631  3653.955580  6355.449040  1059.784022 -5542.026924
0.055200 -5166.147790  1632.987708  6300.150732  3088.924232 -3860.230991 -5898.602328
0.056400  -650.241520  5239.581280  4571.307834 -1605.051219 -5631.771329 -2776.422799
0.057600  3301.304803  5258.984779   921.347828 -4434.222953 -4451.933760   867.985500
0.058800  5134.376658  3220.534452 -2576.063525 -5293.186294 -1634.677174  4068.527643
0.060000  4944.034659  -235.631175 -5286.903727 -3892.288000  2413.851650  5820.601305
0.061200  2010.248039 -4343.917732 -5381.095711   274.505250  5675.494709  4025.154697
0.062400 -2715.795144 -6079.555778 -1802.603987  4680.405843  5251.779565  -662.716800
0.063600 -5653.235407 -3612.750199  2851.944747  5708.650473  1471.629934 -4463.356015
0.064800 -4755.189529   716.967076  5109.943046  3247.664987 -2433.261352 -5080.958817
0.066000 -1597.677620  3754.297524  4509.172929  -155.404518 -4560.760696 -3478.646811
0.067200  1739.062830  4912.610125  2217.229983 -3244.585573 -4873.067619  -522.120211
0.068400  4588.899951  4127.728403 -1478.335234 -5371.519530 -2657.422376  3453.560713
0.069600  5369.495090   547.207011 -5057.500312 -4329.436777  1867.023338  5702.467766
0.070800  2368.885523 -3885.817239 -5221.379912   -42.076730  5082.527343  3805.767961
0.072000 -2119.884038 -5265.043098 -1874.856227  3663.623806  4559.962882   -51.109879
0.073200 -4415.096694 -3375.369320  1627.739149  4571.577937  2038.299199 -2886.050631
0.074400 -4328.754306  -579.872821  3864.320899  3687.105202  -930.330755 -4499.994598
0.075600 -2683.446737  2489.389783  4753.267459  1154.390231 -4003.269579 -4269.901464
0.076800   811.520079  4958.301946  2969.680781 -2752.082818 -5120.015779 -1079.988496
0.078000  4382.851970  4348.854447 -1164.255964 -5159.023128 -2665.932779  3069.045165
0.079200  4911.187156   689.367053 -4313.973617 -3921.287249  1297.611150  4781.964909
0.080400  2310.911473 -2862.459109 -4388.678260  -626.988760  3762.017768  3568.658860
0.081600  -885.101399 -4215.860511 -2429.681151  2247.713819  4162.971618  1098.875347
0.082800 -3248.291586 -3743.033406   258.077879  4043.467203  2976.135053 -1798.461252
0.084000 -4477.430649 -1668.284106  3260.410372  4254.768372   -22.186962 -4398.490385
0.085200 -3376.160129  1930.861584  4914.629013  1726.588593 -3675.690550 -4466.744978
0.086400   348.785399  4692.811964  3142.438853 -2302.492039 -4805.179844 -1301.284961
0.087600  3728.626309  4022.568850  -622.588635 -4336.172415 -2651.818928  2146.461954
0.088800  4175.015879  1157.906400 -3113.334852 -3573.106197   194.353702  3650.820597
0.090000  2734.287109 -1424.807760 -3873.082293 -1715.902276  2510.026106  3797.234049
0.091200   521.121052 -3505.587885 -3359.332230   979.476102  4265.050483  2297.651291
0.092400 -2614.795493 -4350.067647  -670.416756  3930.963937  3687.768417 -1226.315536
0.093600 -4668.237788 -2226.697104  3032.246031  4419.985474   263.724529 -4125.332040
0.094800 -3327.001660  1543.697677  4417.818512  1790.862894 -2974.001219 -3950.190347
0.096000   -72.932322  3731.237887  2898.116317 -1333.376016 -3832.832986 -1723.431785
0.097200  2399.191950  3588.996870   459.868558 -3179.555538 -2970.218671   771.214086
0.098400  3568.244209  2125.222455 -1899.741802 -3722.756929 -1025.025074  3028.120805
0.099600  3430.435278  -424.059979 -3824.545389 -2545.946231  1923.068653  4111.197195
0.100800  1202.666193 -3305.371131 -3728.173631   565.941213  4182.483509  2536.575494
0.102000 -2290.360606 -4215.382673  -860.869220  3532.050295  3467.653845  -906.960424
0.103200 -4063.191999 -2107.714653  2381.907627  3792.979677   537.855094 -3228.284562
0.104400 -2955.096846   839.390273  3473.257583  1888.722775 -1876.489454 -3319.014835
0.105600  -807.070154  2612.569022  2893.467894  -257.488908 -3105.539901 -2281.093706
0.106800  1304.363716  3422.343149  1420.728142 -2430.621543 -3406.422620  -145.380419
0.108000  3404.244671  2767.033483 -1369.708620 -3891.714600 -1566.494030  2804.868863
