##TITLE=1D-13C-1-5-5-328-110-"no"-"yes"
##JCAMP-DX=5.01 $$ Magritek Spinsolve SPA1903 2.0.4.4423
##DATA TYPE=NMR FID
##DATA CLASS=NTUPLES
##ORIGIN=SPA1903 at Magritek
##OWNER=Copyright (C) 2025 by Magritek
##LONGDATE=2025/02/12 14:31:30.947
##.OBSERVE FREQUENCY=15.4861775226891
##.OBSERVE NUCLEUS=^13C
##.DELAY=( 20,  5000)
##.ACQUISITION MODE=SIMULTANEOUS
##.FIELD= 1.5
##.AVERAGES= 1
##.DIGITISER RES=16
##.SHIFT REFERENCE=(INTERNAL, Water, 4096, 0)
##$REFERENCE_POINT= 796.520    $$ Referencing label
$$      Distance of the zero axis position (in Hz) from the last data
$$      point (right edge); positive values -> right edge is below 0 Hz
##SPECTROMETER/DATA SYSTEM=Magritek
##SAMPLE DESCRIPTION=solvent=Water
$$ Bruker specific parameters
$$ --------------------------
##$AUNMP=   <proc_1d_nosref>
##$INSTRUM= <Magritek>
##$SI=      8192
##$TD=      8192
##$TDeff=   8192
##$SW=      322.868600
##$BF1=     15.4861775226891
##$SF=      15.4844740431616
##$LB=      0
##$PHC0=    217.3
##$PHC1=    0.0
##$REVERSE= yes
$$ End of Bruker specific parameters
$$ ---------------------------------
##NTUPLES=NMR FID
##VAR_NAME=        TIME,            FID/REAL,            FID/IMAG, PAGE NUMBER
##SYMBOL=             X,                   R,                   I,           N
##VAR_TYPE= INDEPENDENT,           DEPENDENT,           DEPENDENT,        PAGE
##VAR_FORM=        AFFN,                AFFN,                AFFN,        AFFN
##VAR_DIM=         8192,                8192,                8192,           2
##UNITS=        SECONDS,     ARBITRARY UNITS,     ARBITRARY UNITS,            
##FIRST=              0,                   0,                   0,           1
##LAST=    1.638199e+00,   0.191336085704755,  -0.094549471212204,           2
##MIN=                0,    -384.03886157116,   -374.011105275932,           1
##MAX=     1.638199e+00,    366.219023392158,    395.962374366325,           2
##FACTOR=             1,                   1,                   1,           1
##PAGE=N=1
##DATA TABLE=(X++(R..R)), XYDATA
0.000000     0.000000   162.455409  -281.625426  -374.105029     6.962499   365.949198
0.001200   272.467267  -151.198683  -384.038862  -140.737481   266.513940   340.366780
0.002400     0.852028  -332.744004  -259.647379   121.962426   351.400169   156.930636
0.003600  -226.864069  -335.213973   -38.288826   302.888059   279.524874   -81.178856
0.004800  -346.613121  -191.118198   199.192582   353.827156    73.974957  -302.631415
0.006000  -310.386584    62.976094   362.470504   216.502195  -201.899883  -376.359975
0.007200   -85.195898   311.956305   319.704204   -67.797313  -375.059012  -212.833114
0.008400   209.630991   365.625403    74.083578  -308.956812  -308.975115    68.524767
0.009600   354.324784   202.766242  -190.448013  -349.374682   -83.021860   279.307510
0.010800   294.865467   -44.837519  -326.437216  -215.122803   155.381187   335.940729
0.012000   109.305163  -252.715780  -308.066217     8.678233   315.847361   238.768928
0.013200  -130.980146  -349.252834  -141.130983   246.296319   335.518996     8.791125
0.014400  -330.662005  -263.874876   128.948063   366.219023   149.633011  -256.969842
0.015600  -341.194846    -5.792400   336.749053   259.996723  -138.518963  -360.500685
0.016800  -134.689917   251.229675   325.883211     3.251685  -318.000924  -242.752993
0.018000   120.679764   333.472558   140.090080  -214.635750  -306.358951   -28.104667
0.019200   286.593142   251.583387   -88.661672  -321.155783  -169.230223   187.074277
0.020400   320.274483    63.183959  -276.070276  -281.915051    61.637624   335.302988
0.021600   197.475028  -186.346590  -342.245356   -79.507063   288.418124   301.494658
0.022800   -61.468332  -347.399511  -200.676292   193.259924   346.790283    70.532447
0.024000  -291.749670  -288.644441    64.809246   336.156781   190.664635  -186.478909
0.025200  -329.758444   -73.814788   267.569083   279.232071   -48.672849  -312.458129
0.026400  -195.250000   152.584546   317.100270    93.660188  -243.379088  -283.390421
0.027600    16.336641   297.560737   218.239099  -128.695902  -323.788303  -126.463117
0.028800   228.489392   305.482175     9.906445  -304.286554  -245.550293   120.391699
0.030000   338.985944   137.370450  -234.916732  -319.742965    -8.688432   318.395653
0.031200   249.711124  -129.259828  -342.122804  -130.478096   237.301892   310.129686
0.032400     3.102007  -303.021009  -232.296465   121.100362   322.593378   130.197264
0.033600  -214.981164  -291.474166   -17.450005   272.448995   230.823653   -86.857425
0.034800  -301.110284  -149.088471   182.669069   295.466761    53.026660  -256.830685
0.036000  -256.286628    58.699900   308.956538   185.075559  -168.456473  -318.870239
0.037200   -72.881155   266.048962   277.350667   -54.132221  -326.601577  -189.859916
0.038400   181.510459   328.713363    69.767050  -279.560053  -278.003587    64.804892
0.039600   321.017854   176.941221  -180.333965  -311.708855   -60.407891   260.454728
0.040800   256.316188   -56.922449  -295.513874  -172.560159   155.101091   290.314273
0.042000    77.298547  -228.196347  -255.261000    24.730531   274.493969   191.978262
0.043200  -122.475411  -292.062320  -105.216441   213.483905   273.145313     3.679877
0.044400  -277.695098  -221.142078   112.152615   310.689029   125.558386  -216.747194
0.045600  -291.534749    -6.286893   289.512992   230.157011  -112.866536  -317.245685
0.046800  -125.714328   223.601204   291.020880     0.739702  -286.953117  -217.985536
0.048000   116.340823   305.823660   117.990307  -209.702613  -276.953270    -4.663860
0.049200   266.821493   211.215507   -98.028864  -282.521720  -126.493253   178.758548
0.050400   269.484248    34.591615  -239.585044  -225.385823    65.061315   280.329412
0.051600   156.553776  -159.190794  -284.633931   -60.491389   242.526147   251.932731
0.052800   -49.331105  -294.956784  -175.991782   163.611801   303.819742    65.467180
0.054000  -255.886721  -263.257390    59.618994   306.241146   170.486438  -173.530955
0.055200  -298.857614   -55.908950   249.642641   246.488946   -61.036676  -287.054675
0.056400  -160.366199   156.300991   279.043008    63.005447  -224.655277  -236.427155
0.057600    35.571896   261.922911   172.124192  -122.927286  -269.412575   -90.416247
0.058800   200.414476   252.736627    -3.251561  -257.055679  -198.555523   103.569579
0.060000   284.310002   115.890561  -199.125680  -273.011218    -9.845943   271.057950
0.061200   217.124670  -108.795853  -302.330322  -120.644516   208.383057   279.649529
0.062400     4.473095  -273.308297  -210.408109   112.321624   293.050806   115.321643
0.063600  -200.887146  -267.490587    -6.865859   261.752808   205.856047   -98.278012
0.064800  -272.885752  -114.896432   180.776570   254.736208    23.875694  -232.253646
0.066000  -208.608498    70.158063   265.704741   139.453453  -155.180322  -260.638056
0.067200   -50.008356   223.823542   227.899990   -50.214024  -271.835156  -161.653381
0.068400   150.062043   277.926109    65.413095  -232.641892  -244.251400    50.387708
0.069600   283.499777   164.919967  -158.186077  -284.827101   -57.191325   239.122282
0.070800   237.083420   -56.469402  -277.384536  -154.255688   150.406780   266.833274
0.072000    55.936493  -218.752507  -224.397980    40.930071   247.908130   154.624903
0.073200  -123.559552  -255.026921   -78.018161   193.022292   229.965682   -10.303104
0.074400  -242.915354  -179.617494   101.108575   260.719481   104.932816  -183.564306
0.075600  -250.527240    -7.123154   251.302083   200.869008  -101.524027  -277.545604
0.076800  -111.668702   193.557424   260.357315     2.603338  -258.026883  -199.476886
0.078000   105.876808   280.006076   104.683891  -194.421883  -247.785442     1.547790
0.079200   244.979074   187.820682   -97.618586  -257.966537  -102.448893   174.281022
0.080400   237.656162    14.748807  -221.769480  -188.609994    71.507750   244.294001
0.081600   121.602288  -147.803621  -241.175835   -39.865173   213.755357   208.614237
0.082800   -48.575182  -248.349587  -145.666178   139.832629   255.753467    57.714583
0.084000  -215.126075  -226.611594    42.170650   259.561066   155.412609  -144.437767
0.085200  -265.948290   -59.337558   222.933766   227.558705   -48.695051  -261.582508
0.086400  -149.147366   144.406728   255.906225    52.727898  -211.419276  -213.263254
0.087600    45.748095   243.741326   145.353012  -126.341881  -239.443514   -64.591423
0.088800   185.714247   210.416634   -16.297411  -224.269028  -162.602535    99.997467
0.090000   240.410770    91.714123  -172.349434  -229.677255    -6.253652   226.785663
0.091200   187.185354   -86.305983  -257.923675  -108.543437   176.420383   246.330999
0.092400     7.753411  -241.986929  -191.992246    94.583388   262.990248   103.169732
0.093600  -183.694039  -242.952470    -0.891743   236.688910   179.597717   -94.897995
0.094800  -249.045059   -97.901529   165.641056   223.011590    12.134476  -211.841731
0.096000  -174.577334    74.096128   229.747703   110.551944  -139.770947  -221.668011
0.097200   -34.847810   196.217958   191.373563   -44.668244  -228.649602  -133.563064
0.098400   126.889982   236.227883    56.751197  -195.399134  -210.965662    35.351544
0.099600   243.236445   149.919361  -131.177365  -249.641921   -58.843881   205.105601
0.100800   216.255678   -42.068635  -247.391528  -145.504498   135.887556   245.006897
0.102000    51.455545  -203.720645  -203.583937    42.050680   232.357356   136.469978
0.103200  -123.402285  -227.792649   -56.968161   180.610398   196.360105   -24.585042
0.104400  -210.399360  -141.428844    97.466444   218.505512    77.911382  -159.711346
0.105600  -205.323013    -1.047726   208.093877   165.870659   -81.927616  -231.743370
0.106800   -97.506986   159.802056   224.172982    12.180188  -218.584039  -180.076583
0.108000    86.048304   244.790842    98.931936  -168.398748  -226.278740    -5.557083
