##TITLE=1D-13C-1-5-5-328-110-"no"-"yes"
##JCAMP-DX=5.01 $$ Magritek Spinsolve SPA1903 2.0.4.4423
##DATA TYPE=NMR FID
##DATA CLASS=NTUPLES
##ORIGIN=SPA1903 at Magritek
##OWNER=Copyright (C) 2025 by Magritek
##LONGDATE=2025/02/12 14:30:06.953
##.OBSERVE FREQUENCY=15.4861775226891
##.OBSERVE NUCLEUS=^13C
##.DELAY=( 20,  5000)
##.ACQUISITION MODE=SIMULTANEOUS
##.FIELD= 1.5
##.AVERAGES= 1
##.DIGITISER RES=16
##.SHIFT REFERENCE=(INTERNAL, Water, 4096, 0)
##$REFERENCE_POINT= 796.520    $$ Referencing label
$$      Distance of the zero axis position (in Hz) from the last data
$$      point (right edge); positive values -> right edge is below 0 Hz
##SPECTROMETER/DATA SYSTEM=Magritek
##SAMPLE DESCRIPTION=solvent=Water
$$ Bruker specific parameters
$$ --------------------------
##$AUNMP=   <proc_1d_nosref>
##$INSTRUM= <Magritek>
##$SI=      8192
##$TD=      8192
##$TDeff=   8192
##$SW=      322.868600
##$BF1=     15.4861775226891
##$SF=      15.4844740431616
##$LB=      0
##$PHC0=    217.8
##$PHC1=    0.0
##$REVERSE= yes
$$ End of Bruker specific parameters
$$ ---------------------------------
##NTUPLES=NMR FID
##VAR_NAME=        TIME,            FID/REAL,            FID/IMAG, PAGE NUMBER
##SYMBOL=             X,                   R,                   I,           N
##VAR_TYPE= INDEPENDENT,           DEPENDENT,           DEPENDENT,        PAGE
##VAR_FORM=        AFFN,                AFFN,                AFFN,        AFFN
##VAR_DIM=         8192,                8192,                8192,           2
##UNITS=        SECONDS,     ARBITRARY UNITS,     ARBITRARY UNITS,            
##FIRST=              0,                   0,                   0,           1
##LAST=    1.638199e+00,  0.0738703941079481,   0.104727901476631,           2
##MIN=                0,   -1302.05518501719,   -1241.88611279305,           1
##MAX=     1.638199e+00,     1240.2768395663,     1343.6646012958,           2
##FACTOR=             1,                   1,                   1,           1
##PAGE=N=1
##DATA TABLE=(X++(R..R)), XYDATA
0.000000     0.000000   545.376949  -979.357197 -1254.667883    44.958907  1240.276840
0.001200   909.875188  -528.727929 -1302.055185  -468.155913   922.448836  1152.847775
0.002400   -17.529251 -1134.386908  -863.441997   432.866683  1190.880564   509.811515
0.003600  -782.000976 -1121.059401  -106.943203  1032.229829   921.761073  -297.970744
0.004800 -1163.143961  -626.502823   690.638572  1180.917950   223.900035 -1022.078398
0.006000 -1019.171911   245.100090  1220.227159   697.283387  -692.740640 -1238.639503
0.007200  -249.511506  1057.183337  1056.055094  -256.920408 -1246.363605  -689.289619
0.008400   714.051814  1224.436643   221.797431 -1036.405868 -1008.317606   254.923013
0.009600  1187.708586   657.362103  -664.551126 -1153.109539  -235.271728   948.175843
0.010800   966.449214  -182.472599 -1096.501363  -681.352623   554.158550  1112.793491
0.012000   318.303768  -861.713137  -994.450761    75.592436  1056.669765   764.747882
0.013200  -466.399653 -1147.704007  -424.286641   837.697867  1075.445893   -16.580837
0.014400 -1094.706452  -827.287088   465.900074  1197.228461   448.307238  -867.043856
0.015600 -1105.246014    35.975885  1123.354457   808.176901  -496.907525 -1172.791627
0.016800  -401.774169   851.454408  1046.016114   -45.011420 -1060.740706  -759.433224
0.018000   453.138771  1084.546100   400.469409  -748.854927  -985.506578   -34.101773
0.019200   957.164670   788.654438  -331.951379 -1044.598158  -491.033771   655.203951
0.020400  1017.029948   145.655274  -919.277967  -876.256354   253.875234  1087.952621
0.021600   585.794026  -644.021992 -1088.507565  -192.446600   954.085597   926.539713
0.022800  -254.904476 -1127.522138  -599.945530   670.672993  1105.554327   170.348722
0.024000  -965.676276  -901.998970   266.902499  1094.937785   572.802950  -640.843413
0.025200 -1055.419211  -177.764337   904.272295   867.397551  -218.015911 -1024.871283
0.026400  -582.021446   556.486846  1013.177820   244.393369  -821.492771  -890.210164
0.027600   125.328494   987.791372   649.867543  -477.703797 -1025.954841  -325.247683
0.028800   783.219079   947.646495   -55.507720 -1005.931992  -718.863229   460.762416
0.030000  1074.015543   364.431453  -799.407159  -982.577943    50.006901  1030.311391
0.031200   729.365751  -478.062944 -1081.435662  -340.552199   802.571796   949.446871
0.032400   -66.284663  -986.624778  -685.865809   448.531384  1015.629364   334.728072
0.033600  -734.186740  -890.106388    20.175133   889.011482   680.715476  -344.207941
0.034800  -953.963144  -405.860248   633.151044   901.281584    85.701936  -838.735770
0.036000  -756.162956   250.514332   970.321604   510.059402  -596.642807  -983.672631
0.037200  -152.386238   875.605847   826.513733  -249.709792 -1026.928736  -534.100054
0.038400   632.549720  1017.236076   130.560171  -915.071881  -816.376674   291.319282
0.039600  1021.376118   478.253105  -641.205608  -955.037552   -97.695309   861.986024
0.040800   751.667137  -266.202394  -939.501769  -460.500113   564.710499   882.867559
0.042000   137.749646  -758.935005  -736.786020   169.176609   870.048024   519.994773
0.043200  -461.899125  -885.121319  -234.542941   702.971064   792.270683   -84.003610
0.044400  -872.203905  -603.589131   420.168105   943.049036   295.291139  -724.148150
0.045600  -855.333690    66.954896   912.049087   633.979415  -436.130852  -969.845123
0.046800  -295.895566   748.886716   854.407158   -99.636006  -914.013486  -595.868088
0.048000   445.077677   929.954131   267.016455  -713.786383  -805.480636    88.678395
0.049200   851.728685   566.291375  -390.525116  -856.532372  -290.908370   620.759612
0.050400   779.537243    -4.725667  -778.807455  -608.773478   296.545092   843.603072
0.051600   380.086936  -551.885055  -829.450240   -92.258715   775.515060   700.186896
0.052800  -247.400237  -903.085688  -446.141032   570.234357   892.216800   105.872046
0.054000  -824.071039  -732.309275   276.341658   942.543480   430.445612  -611.808901
0.055200  -883.223780   -60.678017   822.209399   681.688028  -287.894481  -887.275625
0.056400  -389.658472   567.912589   815.442613    69.738515  -741.012030  -640.088730
0.057600   223.437075   802.299813   414.918515  -464.539658  -786.034283  -162.200869
0.058800   663.633647   686.824522  -123.473751  -789.054022  -505.371410   400.632579
0.060000   831.239601   246.639085  -658.087768  -763.824244    80.668354   835.206060
0.061200   558.453932  -408.962309  -876.575281  -263.008745   685.504037   789.956740
0.062400   -94.716107  -862.295601  -554.393271   431.667030   869.982650   236.027957
0.063600  -676.504004  -754.769990    94.434987   818.993447   528.432355  -399.549182
0.064800  -822.811125  -236.493487   618.250942   712.922397   -48.207678  -747.583170
0.066000  -540.654063   324.676935   789.187294   292.090163  -552.596031  -727.869884
0.067200   -26.946467   713.228042   591.782744  -258.070323  -805.751970  -364.534310
0.068400   535.588108   784.493029    63.821597  -739.533012  -635.826257   257.779329
0.069600   840.954795   380.640806  -552.514074  -797.748551   -48.555605   756.571270
0.070800   618.343625  -277.916067  -818.257675  -345.976932   540.480071   749.295116
0.072000    39.853970  -700.304956  -576.478676   240.352561   746.311903   343.595491
0.073200  -462.742937  -706.935929  -101.934582   623.704860   595.441263  -153.283003
0.074400  -717.047756  -415.144900   395.380182   732.463156   180.523322  -603.241062
0.075600  -661.986753    96.318232   753.914209   484.056804  -396.068913  -793.448130
0.076800  -205.244033   637.432460   691.665976  -113.328155  -782.789885  -478.645990
0.078000   423.593947   796.568923   175.710973  -649.754786  -657.890832   135.996610
0.079200   748.745750   442.721165  -400.152907  -742.121306  -171.348711   597.507541
0.080400   621.149261  -102.220808  -684.887941  -438.508013   328.380294   698.857733
0.081600   226.206824  -522.089022  -633.797937    24.625824   653.202255   490.308153
0.082800  -263.129338  -706.879826  -293.469555   491.779864   685.528500    33.721152
0.084000  -669.108108  -549.383559   250.496992   746.608432   323.352439  -506.727805
0.085200  -717.061697   -36.680877   694.359011   557.107951  -272.788973  -758.005846
0.086400  -302.564172   517.576310   687.447699    14.977637  -667.772135  -526.436613
0.087600   258.018736   709.409027   289.872639  -467.817945  -643.153806   -43.440555
0.088800   594.733359   513.416616  -180.817324  -653.907651  -339.955861   382.745038
0.090000   648.276665   129.021608  -554.356124  -571.533798   105.348696   669.298144
0.091200   421.613090  -354.270562  -708.501308  -187.134555   579.800244   634.335009
0.092400  -105.985215  -720.087804  -442.230146   383.695505   739.013078   169.693148
0.093600  -612.923034  -624.929195   140.707287   717.768675   398.688554  -396.683131
0.094800  -689.819437  -138.202699   571.400411   573.601769  -122.343890  -649.837326
0.096000  -378.314882   340.868700   630.004113   164.805049  -484.856541  -556.192532
0.097200    43.772723   593.406139   423.637607  -259.077679  -627.256756  -237.840844
0.098400   439.469711   595.209592    27.528317  -591.620197  -491.364376   224.646738
0.099600   669.523694   287.008951  -454.811199  -641.266282   -36.467829   622.257605
0.100800   514.559016  -238.553457  -699.046698  -284.968841   482.358623   644.583858
0.102000    10.193018  -628.586939  -485.159735   252.449539   670.483124   258.571422
0.103200  -460.765519  -601.729151    -7.362831   579.504244   452.499666  -215.270136
0.104400  -610.418915  -265.652616   391.899860   572.269305    62.479015  -518.848777
0.105600  -472.737480   144.051806   588.535562   320.062549  -339.893839  -596.427063
0.106800  -128.832525   509.709010   532.024807  -109.523367  -626.119869  -370.626294
0.108000   348.372017   640.261721   139.907046  -541.734339  -551.078663   126.874590
