##TITLE=1D-13C-1-2-5-328-110-"no"-"yes"
##JCAMP-DX=5.01 $$ Magritek Spinsolve SPA1903 2.0.4.4423
##DATA TYPE=NMR FID
##DATA CLASS=NTUPLES
##ORIGIN=SPA1903 at Magritek
##OWNER=Copyright (C) 2025 by Magritek
##LONGDATE=2025/03/17 11:59:08.985
##.OBSERVE FREQUENCY=15.4860999900848
##.OBSERVE NUCLEUS=^13C
##.DELAY=( 20,  2000)
##.ACQUISITION MODE=SIMULTANEOUS
##.FIELD= 1.5
##.AVERAGES= 1
##.DIGITISER RES=16
##.SHIFT REFERENCE=(INTERNAL, Water, 4096, 0)
##$REFERENCE_POINT= 796.529    $$ Referencing label
$$      Distance of the zero axis position (in Hz) from the last data
$$      point (right edge); positive values -> right edge is below 0 Hz
##SPECTROMETER/DATA SYSTEM=Magritek
##SAMPLE DESCRIPTION=solvent=Water
$$ Bruker specific parameters
$$ --------------------------
##$AUNMP=   <proc_1d_nosref>
##$INSTRUM= <Magritek>
##$SI=      8192
##$TD=      8192
##$TDeff=   8192
##$SW=      322.870200
##$BF1=     15.4860999900848
##$SF=      15.4843965190859
##$LB=      0
##$PHC0=    217.0
##$PHC1=    0.0
##$REVERSE= yes
$$ End of Bruker specific parameters
$$ ---------------------------------
##NTUPLES=NMR FID
##VAR_NAME=        TIME,            FID/REAL,            FID/IMAG, PAGE NUMBER
##SYMBOL=             X,                   R,                   I,           N
##VAR_TYPE= INDEPENDENT,           DEPENDENT,           DEPENDENT,        PAGE
##VAR_FORM=        AFFN,                AFFN,                AFFN,        AFFN
##VAR_DIM=         8192,                8192,                8192,           2
##UNITS=        SECONDS,     ARBITRARY UNITS,     ARBITRARY UNITS,            
##FIRST=              0,                   0,                   0,           1
##LAST=    1.638199e+00,  -0.214141453279673,   0.518414845111207,           2
##MIN=                0,   -4129.39623148265,   -4020.73137557726,           1
##MAX=     1.638199e+00,    4003.40297404533,    4304.17666830738,           2
##FACTOR=             1,                   1,                   1,           1
##PAGE=N=1
##DATA TABLE=(X++(R..R)), XYDATA
0.000000     0.000000  1730.075063 -3137.170383 -4017.315915   177.152807  4003.402974
0.001200  2861.901655 -1759.916564 -4129.396231 -1407.658246  2957.410877  3617.945960
0.002400  -107.346634 -3599.548445 -2684.886811  1415.246393  3750.940807  1569.370301
0.003600 -2477.214490 -3525.789397  -327.561252  3269.266849  2935.257549  -954.654378
0.004800 -3741.439670 -2002.214176  2238.971755  3805.155400   695.706018 -3332.310987
0.006000 -3292.704491   846.084145  3998.493467  2212.850343 -2354.793805 -4032.056328
0.007200  -684.047493  3533.564493  3347.806736 -1004.051438 -4097.290058 -2081.598233
0.008400  2496.828903  3929.113248   494.005944 -3478.625851 -3113.781145  1061.214278
0.009600  3850.609096  1888.551751 -2317.851547 -3617.356950  -515.106156  3135.268094
0.010800  2933.401347  -784.633503 -3491.149501 -1979.143083  1891.787107  3468.680645
0.012000   861.645569 -2795.061947 -3077.483480   365.762889  3402.706552  2344.992505
0.013200 -1609.754526 -3665.877078 -1234.022504  2791.493132  3422.640448  -202.063171
0.014400 -3639.433768 -2585.377845  1708.651032  3921.211408  1251.460163 -3012.223322
0.015600 -3517.170402   378.913320  3779.259345  2443.703975 -1898.905129 -3819.231901
0.016800 -1003.809043  2987.816213  3235.318892  -478.280408 -3509.189686 -2191.941636
0.018000  1728.820582  3454.237977  1001.326599 -2583.994222 -3014.601439   166.783931
0.019200  3112.679434  2305.554319 -1269.569022 -3325.322420 -1380.902869  2254.886349
0.020400  3200.904722   252.654468 -3065.839526 -2691.983544  1033.271043  3566.815756
0.021600  1708.117440 -2315.167269 -3529.248645  -355.890415  3309.912611  2871.793986
0.022800 -1171.364559 -3765.884558 -1658.156230  2516.891360  3543.233222   168.184946
0.024000 -3381.961339 -2699.030524  1302.252480  3625.553802  1461.906447 -2439.975891
0.025200 -3275.858613  -113.075776  3112.094114  2501.390337 -1118.962310 -3314.382545
0.026400 -1476.656429  2092.763900  3098.902351   375.276208 -2780.546538 -2582.527707
0.027600   735.538285  3174.124237  1778.565924 -1790.292099 -3225.743171  -738.398386
0.028800  2699.642023  2884.739757  -493.753092 -3336.667435 -2086.905686  1793.317117
0.030000  3502.027102   863.087540 -2885.375299 -3075.783781   573.650172  3540.134558
0.031200  2084.122077 -1981.947668 -3552.859942  -684.618905  2994.060714  2915.229361
0.032400  -751.851944 -3420.093182 -1838.543089  1958.644566  3266.639545   566.344384
0.033600 -2735.303663 -2639.362207   610.577916  3035.719683  1788.543690 -1583.054659
0.034800 -3013.272197  -820.991429  2337.707546  2688.814918  -196.069870 -2868.741764
0.036000 -2100.064006  1231.143125  3134.064743  1218.451358 -2264.684291 -3020.580398
0.037200   -30.440037  3056.646242  2388.861362 -1283.562368 -3414.090454 -1288.377464
0.038400  2473.599140  3158.786902  -112.664402 -3239.426710 -2307.810031  1482.753046
0.039600  3388.897636  1072.711673 -2529.329377 -2936.467668   265.809772  3058.666038
0.040800  2055.121682 -1412.101615 -3080.740571  -986.172648  2237.077152  2694.086142
0.042000   -86.788494 -2710.701779 -2044.214366  1065.914348  2878.048773  1226.107383
0.043200 -1902.487681 -2748.214737  -260.957879  2570.444341  2300.244007  -786.512041
0.044400 -2971.293400 -1539.271511  1830.044431  3002.314293   452.653702 -2711.893468
0.045600 -2539.817362   798.193546  3176.640792  1612.236063 -1980.878908 -3123.296492
0.046800  -361.446567  2859.500698  2496.704124  -968.235553 -3185.477407 -1435.189974
0.048000  2056.219840  2957.650358   208.428873 -2733.668736 -2263.352939   944.826170
0.049200  2918.015726  1309.872799 -1822.661589 -2687.014046  -323.982053  2378.391373
0.050400  2200.390282  -612.865924 -2668.227759 -1515.126037  1459.095133  2692.433467
0.051600   689.204866 -2187.911848 -2463.760176   288.046434  2762.706089  1871.846224
0.052800 -1367.667135 -2981.886062  -903.665861  2356.610673  2724.459377  -317.300437
0.054000 -3010.890974 -1941.035454  1567.100438  3113.782686   763.707252 -2526.119965
0.055200 -2641.238624   521.136916  2984.908635  1720.940423 -1625.851487 -2894.768753
0.056400  -603.522978  2352.089920  2381.463902  -459.538919 -2669.784822 -1620.139870
0.057600  1337.261426  2639.596994   770.187552 -1998.833416 -2356.520987   114.928415
0.058800  2463.062436  1858.218066 -1011.581357 -2686.889081 -1106.563640  1860.258918
0.060000  2608.206640   149.412730 -2555.426025 -2141.307860   952.636167  2921.523448
0.061200  1267.722125 -1994.669158 -2799.962652  -112.299815  2732.448660  2183.489065
0.062400 -1095.660711 -3008.137268 -1156.196187  2113.120775  2718.694970   -36.639671
0.063600 -2692.805589 -1998.864442  1133.917430  2813.204569  1019.084409 -1969.390322
0.064800 -2488.748153     5.081705  2419.631494  1873.796457  -905.652674 -2549.676630
0.066000 -1122.909745  1631.286644  2411.083489   286.182831 -2183.477793 -2028.545530
0.067200   574.987723  2523.242043  1434.833937 -1445.760076 -2613.570983  -570.148948
0.068400  2231.632045  2321.034702  -488.136736 -2747.934468 -1609.708880  1567.176534
0.069600  2825.318712   543.021256 -2441.840925 -2369.413883   662.728530  2847.862719
0.070800  1462.340647 -1722.894178 -2720.700581  -340.353725  2403.386026  2125.893385
0.072000  -738.645589 -2619.370117 -1275.589750  1564.709971  2429.962590   365.733907
0.073200 -2082.774599 -1988.704480   471.955361  2325.011399  1394.513419 -1204.796338
0.074400 -2368.364082  -682.547908  1849.046287  2172.921624  -152.599203 -2345.012924
0.075600 -1702.781862  1063.827579  2579.506712   915.519760 -1935.058885 -2418.871818
0.076800   122.371623  2545.418686  1808.379044 -1198.090314 -2720.732056  -850.722193
0.078000  2092.018650  2421.552468  -270.349205 -2593.268202 -1662.981404  1296.198229
0.079200  2600.290281   688.784401 -2025.835445 -2208.360905   297.475518  2378.923860
0.080400  1524.082765 -1146.136412 -2360.170065  -719.087708  1746.575447  2085.578653
0.081600   -75.789585 -2130.409714 -1613.836825   845.675797  2286.766394   971.149014
0.082800 -1526.126756 -2209.166475  -214.888526  2093.013771  1880.993902  -668.718626
0.084000 -2446.449751 -1219.955794  1557.555083  2452.195870   292.845003 -2265.479985
0.085200 -2022.591259   762.589152  2625.121179  1199.067586 -1729.142253 -2481.630448
0.086400  -141.199282  2348.726773  1893.268834  -893.495110 -2518.521492 -1012.498992
0.087600  1686.298775  2248.762321    71.526338 -2127.001106 -1696.941869   750.998467
0.088800  2229.194555  1017.332660 -1375.752217 -2092.854157  -311.041813  1832.871865
0.090000  1786.846672  -405.730009 -2140.313430 -1310.511792  1134.814164  2244.540158
0.091200   623.175901 -1814.183971 -2078.967382   248.986652  2330.187768  1536.715996
0.092400 -1207.338147 -2482.636084  -656.586843  2004.776100  2175.908257  -379.438694
0.093600 -2465.537412 -1458.945989  1358.683352  2451.969789   485.418776 -2036.382234
0.094800 -1995.557278   479.855462  2307.817029  1281.600081 -1278.105860 -2215.622622
0.096000  -448.586956  1804.937787  1837.219968  -323.572279 -2046.659724 -1300.276985
0.097200   991.132370  2086.688186   667.985410 -1554.589768 -1909.178627    42.245336
0.098400  1967.693711  1526.200112  -788.168147 -2191.352497  -918.040158  1525.703097
0.099600  2126.370445    87.034399 -2100.645753 -1710.305478   827.858254  2374.163987
0.100800   966.670603 -1665.601646 -2224.432687     2.545317  2227.750712  1658.983437
0.102000  -972.897364 -2363.803133  -803.569105  1720.521333  2069.278946  -128.288304
0.103200 -2114.559468 -1466.121213   944.440345  2128.290381   710.589448 -1512.038644
0.104400 -1861.894224    19.692350  1835.561358  1432.360780  -667.294614 -1952.292544
0.105600  -901.034652  1236.642813  1903.673431   278.470178 -1715.304481 -1657.092229
0.106800   442.708109  2058.824561  1169.615719 -1201.505960 -2140.233649  -412.714761
0.108000  1873.486881  1851.659256  -502.288304 -2254.639542 -1189.605304  1379.234359
