##TITLE=1D-13C-1-2-5-328-110-"no"-"yes"
##JCAMP-DX=5.01 $$ Magritek Spinsolve SPA1903 2.0.4.4423
##DATA TYPE=NMR FID
##DATA CLASS=NTUPLES
##ORIGIN=SPA1903 at Magritek
##OWNER=Copyright (C) 2025 by Magritek
##LONGDATE=2025/03/17 11:56:26.873
##.OBSERVE FREQUENCY=15.4860999900848
##.OBSERVE NUCLEUS=^13C
##.DELAY=( 20,  2000)
##.ACQUISITION MODE=SIMULTANEOUS
##.FIELD= 1.5
##.AVERAGES= 1
##.DIGITISER RES=16
##.SHIFT REFERENCE=(INTERNAL, Water, 4096, 0)
##$REFERENCE_POINT= 796.529    $$ Referencing label
$$      Distance of the zero axis position (in Hz) from the last data
$$      point (right edge); positive values -> right edge is below 0 Hz
##SPECTROMETER/DATA SYSTEM=Magritek
##SAMPLE DESCRIPTION=solvent=Water
$$ Bruker specific parameters
$$ --------------------------
##$AUNMP=   <proc_1d_nosref>
##$INSTRUM= <Magritek>
##$SI=      8192
##$TD=      8192
##$TDeff=   8192
##$SW=      322.870200
##$BF1=     15.4860999900848
##$SF=      15.4843965190859
##$LB=      0
##$PHC0=    217.6
##$PHC1=    0.0
##$REVERSE= yes
$$ End of Bruker specific parameters
$$ ---------------------------------
##NTUPLES=NMR FID
##VAR_NAME=        TIME,            FID/REAL,            FID/IMAG, PAGE NUMBER
##SYMBOL=             X,                   R,                   I,           N
##VAR_TYPE= INDEPENDENT,           DEPENDENT,           DEPENDENT,        PAGE
##VAR_FORM=        AFFN,                AFFN,                AFFN,        AFFN
##VAR_DIM=         8192,                8192,                8192,           2
##UNITS=        SECONDS,     ARBITRARY UNITS,     ARBITRARY UNITS,            
##FIRST=              0,                   0,                   0,           1
##LAST=    1.638199e+00,   -1.06537550093863,   0.247535654794762,           2
##MIN=                0,    -16312.082307688,    -15449.076600893,           1
##MAX=     1.638199e+00,    15659.9805951664,    16913.2609620016,           2
##FACTOR=             1,                   1,                   1,           1
##PAGE=N=1
##DATA TABLE=(X++(R..R)), XYDATA
0.000000     0.000000  6770.913235 -12520.664001 -15751.981096   763.597543 15659.980595
0.001200 11278.579508 -6841.563862 -16312.082308 -5604.416329 11717.134000 14263.435467
0.002400  -517.172394 -14172.787904 -10494.201393  5610.566545 14764.660778  6092.854569
0.003600 -9885.362495 -13801.455319  -977.813795 12939.985258 11183.338446 -4051.887793
0.004800 -14497.479323 -7433.206960  8906.993719 14581.723412  2249.137290 -13067.444778
0.006000 -12292.777289  3724.121777 15197.873195  7932.925157 -9191.827450 -15042.508106
0.007200 -2227.358643 13453.853663 12396.552139 -4124.631820 -15406.861515 -7450.895766
0.008400  9599.031029 14528.951942  1527.313487 -13112.211830 -11442.173263  4210.084652
0.009600 14428.607641  6795.927193 -8966.149444 -13407.892373 -1485.581481 11885.666017
0.010800 10634.169914 -3338.846948 -13075.468546 -6950.599718  7528.081193 12771.963636
0.012000  2485.057856 -10700.836709 -10860.965596  2027.478016 12480.344368  7940.550893
0.013200 -6377.078190 -13183.389718 -3773.664199 10539.199372 11922.028006 -1478.429329
0.014400 -13109.865416 -8630.802423  6576.288824 13843.819191  3903.628614 -11111.297134
0.015600 -12252.502500  2019.163821 13614.668397  8102.160231 -7291.830455 -13428.913193
0.016800 -2992.072106 10987.201027 11229.590358 -2395.247064 -12719.405948 -7149.553237
0.018000  6854.158346 12073.790057  2731.563403 -9574.646941 -10231.710001  1380.500970
0.019200 11249.820795  7442.733996 -5334.139184 -11541.219030 -3847.291395  8412.640004
0.020400 10626.440031    12.272259 -10871.986427 -8636.655268  4397.795784 12252.946174
0.021600  4975.912744 -8583.160021 -11629.974144  -272.212014 11570.221572  9138.886510
0.022800 -4756.064210 -12838.131165 -4865.125608  9200.857000 11694.954720  -380.045756
0.024000 -11801.812963 -8485.215966  5207.569686 12280.576173  4165.374156 -8917.671980
0.025200 -10829.405273   564.078401 10989.145549  7760.016309 -4751.579252 -11169.152845
0.026400 -4035.558444  7757.754657 10069.225531   247.973121 -9818.477598 -7931.260132
0.027600  3567.322332 10647.795175  4828.899331 -6744.559523 -10206.167812 -1365.681000
0.028800  9311.340991  8798.174310 -2640.431436 -11034.242136 -5817.600547  6650.745480
0.030000 10970.298175  1795.115503 -9726.023845 -9378.080322  2719.809610 11629.265383
0.031200  5959.394173 -7244.394916 -11252.126110 -1189.344064 10152.529925  8818.768437
0.032400 -3330.820135 -11243.155902 -5152.047822  7253.248588 10403.050221   649.639459
0.033600 -9490.506402 -7750.698547  3138.725404  9887.164274  4688.029894 -6019.022708
0.034800 -9347.885863 -1362.484190  8121.211415  7686.103683 -1885.441055 -9083.931095
0.036000 -5471.901333  4748.890656  9457.936848  2690.927351 -7614.235120 -8713.365093
0.037200  1013.995545  9632.258859  6410.544582 -4822.780863 -10260.646558 -2973.530453
0.038400  8199.940284  9216.991827 -1393.714287 -10282.286945 -6209.969588  5579.712278
0.039600 10242.296511  2138.920337 -8449.718583 -8417.731607  1970.709423  9716.658392
0.040800  5341.215327 -5468.310551 -9255.806134 -1673.740388  7631.625162  7441.809837
0.042000 -1615.904239 -8484.506734 -5084.367549  4349.945573  8470.994082  2336.644306
0.043200 -6577.062516 -7450.449397   642.257148  7894.033552  5673.611683 -3415.970792
0.044400 -8545.840986 -3302.787410  6185.736731  8173.867469    -2.449561 -8245.777747
0.045600 -6337.332797  3408.854437  9070.323224  3581.233634 -6512.256399 -8622.663088
0.046800   157.274951  8789.022999  6322.254837 -4002.068074 -9196.821209 -2992.845986
0.048000  6810.133885  8129.101906  -670.834832 -8568.774530 -5654.904750  4170.392049
0.049200  8496.454594  2351.421758 -6310.261921 -7115.508770   573.671040  7426.525039
0.050400  5244.034464 -3231.733936 -7623.949128 -2769.486090  5230.948372  6876.581713
0.051600   401.155762 -6593.515251 -5833.777679  2061.314309  7680.934043  3946.705973
0.052800 -4781.565312 -7760.181570 -1181.747296  7008.727293  6701.313553 -1999.815089
0.054000 -8454.050689 -4375.157899  5363.115398  8418.126589   830.430683 -7771.064514
0.055200 -6566.074935  2792.645288  8547.169033  3616.731836 -5709.655302 -7790.409498
0.056400  -204.016021  7420.102903  5699.817295 -2884.593332 -7623.894306 -3039.759679
0.057600  4963.566695  6789.435749   518.385839 -6244.897902 -5466.011088  1842.914137
0.058800  6858.207642  3612.856621 -3926.776004 -6752.265819 -1521.249781  5629.799468
0.060000  6142.160981  -889.984046 -7067.016388 -4582.418994  3698.459820  7482.715601
0.061200  2027.671696 -5991.787168 -6723.816265   884.504887  7581.788937  4864.623129
0.062400 -4088.580847 -7935.593926 -1752.590354  6525.633788  6552.718631 -1474.254951
0.063600 -7564.838067 -4276.628090  4303.085105  7461.904288  1280.891184 -6313.573054
0.064800 -5870.330715  1665.418935  6841.709705  3664.636541 -3776.083255 -6551.234254
0.066000 -1382.130143  5360.978990  5455.881128  -991.559014 -6032.716267 -3832.680422
0.067200  2802.940467  6137.716943  2207.750386 -4511.041966 -5908.126263   -30.461756
0.068400  6018.299298  4735.111042 -2398.223349 -6719.634550 -2839.901333  4714.399039
0.069600  6603.052157   174.347584 -6658.456258 -5145.969870  2916.473522  7293.432297
0.070800  2479.070908 -5403.403757 -6450.978301   573.928960  6788.027250  4432.313834
0.072000 -3390.580101 -6774.002159 -1686.340629  5224.701134  5467.820545  -854.078085
0.073200 -5847.480876 -3687.481750  2758.205234  5729.738905  1821.083997 -4158.959519
0.074400 -5055.990877    69.862535  5017.946202  3986.101129 -1749.183479 -5487.650465
0.075600 -2731.118298  3479.855833  5643.954412   817.320570 -5197.677357 -4844.872634
0.076800  1557.560722  6125.332551  3166.086855 -3830.416167 -6201.258950  -759.786554
0.078000  5783.217441  5034.761969 -2094.557358 -6494.965209 -2721.061780  4328.486436
0.079200  5933.523801   205.694758 -5756.416323 -4486.017370  2371.065805  6072.428522
0.080400  2143.878566 -4175.371701 -5166.561607     2.601636  4983.797883  3925.542847
0.081600 -1834.608470 -5292.127670 -2261.267677  3399.196791  4811.619068   535.622638
0.082800 -4256.921739 -4035.322503   972.567458  4947.123815  3002.763047 -2704.035924
0.084000 -5208.905327 -1356.530416  4221.978130  4747.160975  -555.644429 -5373.884375
0.085200 -3641.872219  2796.552293  5905.604794  1556.242365 -4836.590679 -5141.154668
0.086400  1017.686426  5891.541785  3387.339383 -3357.882983 -5866.622874  -987.437134
0.087600  5060.587150  4641.792555 -1527.278090 -5555.937041 -2618.271298  3323.100364
0.088800  4970.935543   628.078753 -4251.456287 -3902.053675  1040.125707  4577.776820
0.090000  2602.452913 -2365.221042 -4433.151490 -1299.426185  3316.939735  4085.904272
0.091200    21.770297 -4246.376055 -3496.508004  1644.311550  4944.541882  2179.792019
0.092400 -3379.195798 -4883.339895  -339.312823  4807.905526  4074.817251 -1909.132787
0.093600 -5636.783238 -2183.008932  4066.141989  5094.374282  -282.240920 -5191.166653
0.094800 -3599.737363  2413.147070  5377.544000  1586.726973 -4120.106568 -4507.565911
0.096000   680.539009  4742.218327  2888.021029 -2256.165856 -4507.810574 -1363.174095
0.097200  3345.241664  3934.407460  -231.882647 -3977.820109 -2874.840723  1524.926087
0.098400  4033.973819  1827.551893 -2579.240827 -4025.518435  -580.459966  3701.874327
0.099600  3495.162675 -1012.364094 -4327.365507 -2409.077688  2522.107126  4519.634241
0.100800   929.924682 -4013.533149 -4015.311410  1127.838180  4903.042995  2479.804332
0.102000 -3067.780092 -4751.490156  -482.956243  4397.605878  3741.319438 -1636.641157
0.103200 -4887.511150 -1921.149942  3354.966711  4267.867270  -110.621193 -4134.418672
0.104400 -2954.641431  1703.803694  4097.566545  1486.749385 -2780.807199 -3543.514449
0.105600   -85.949682  3298.822209  2689.790552  -990.933297 -3428.607328 -1885.687198
0.106800  1894.266665  3547.675817   964.554581 -2933.379209 -3363.395068   365.190313
0.108000  3761.007406  2603.067876 -1850.551720 -4195.370703 -1330.808431  3405.982328
