##TITLE=1D-13C-1-2-5-328-110-"no"-"yes"
##JCAMP-DX=5.01 $$ Magritek Spinsolve SPA1903 2.0.4.4423
##DATA TYPE=NMR FID
##DATA CLASS=NTUPLES
##ORIGIN=SPA1903 at Magritek
##OWNER=Copyright (C) 2025 by Magritek
##LONGDATE=2025/03/17 11:59:12.413
##.OBSERVE FREQUENCY=15.4860999900848
##.OBSERVE NUCLEUS=^13C
##.DELAY=( 20,  2000)
##.ACQUISITION MODE=SIMULTANEOUS
##.FIELD= 1.5
##.AVERAGES= 1
##.DIGITISER RES=16
##.SHIFT REFERENCE=(INTERNAL, Water, 4096, 0)
##$REFERENCE_POINT= 796.529    $$ Referencing label
$$      Distance of the zero axis position (in Hz) from the last data
$$      point (right edge); positive values -> right edge is below 0 Hz
##SPECTROMETER/DATA SYSTEM=Magritek
##SAMPLE DESCRIPTION=solvent=Water
$$ Bruker specific parameters
$$ --------------------------
##$AUNMP=   <proc_1d_nosref>
##$INSTRUM= <Magritek>
##$SI=      8192
##$TD=      8192
##$TDeff=   8192
##$SW=      322.870200
##$BF1=     15.4860999900848
##$SF=      15.4843965190859
##$LB=      0
##$PHC0=    216.9
##$PHC1=    0.0
##$REVERSE= yes
$$ End of Bruker specific parameters
$$ ---------------------------------
##NTUPLES=NMR FID
##VAR_NAME=        TIME,            FID/REAL,            FID/IMAG, PAGE NUMBER
##SYMBOL=             X,                   R,                   I,           N
##VAR_TYPE= INDEPENDENT,           DEPENDENT,           DEPENDENT,        PAGE
##VAR_FORM=        AFFN,                AFFN,                AFFN,        AFFN
##VAR_DIM=         8192,                8192,                8192,           2
##UNITS=        SECONDS,     ARBITRARY UNITS,     ARBITRARY UNITS,            
##FIRST=              0,                   0,                   0,           1
##LAST=    1.638199e+00,  -0.212665580834492,    0.61813287815146,           2
##MIN=                0,    -4064.0294977185,   -3958.46520448116,           1
##MAX=     1.638199e+00,    3939.17866404664,     4234.2548715748,           2
##FACTOR=             1,                   1,                   1,           1
##PAGE=N=1
##DATA TABLE=(X++(R..R)), XYDATA
0.000000     0.000000  1697.319277 -3084.137161 -3945.817253   171.797918  3934.587053
0.001200  2815.750987 -1732.732844 -4064.029498 -1376.599538  2915.644501  3553.098086
0.002400  -106.632606 -3540.103820 -2643.629815  1392.841808  3691.352609  1543.850138
0.003600 -2441.680322 -3465.961390  -317.447581  3212.458898  2884.049321  -954.016434
0.004800 -3683.325362 -1958.878662  2208.081517  3743.501006   678.125433 -3290.424677
0.006000 -3242.500817   841.725513  3939.178664  2169.524242 -2332.614250 -3970.632333
0.007200  -663.849133  3481.078597  3293.127047  -997.779415 -4035.206752 -2042.607791
0.008400  2459.164596  3862.257587   482.350486 -3427.161015 -3057.829420  1043.337551
0.009600  3789.031948  1866.465553 -2281.967473 -3561.316989  -505.648754  3082.432022
0.010800  2877.365790  -776.760558 -3435.327059 -1951.664456  1871.340461  3418.199722
0.012000   842.401646 -2747.788673 -3034.912085   359.579904  3359.143064  2305.421290
0.013200 -1594.639895 -3613.897705 -1204.906734  2754.895630  3369.606880  -203.577103
0.014400 -3586.898915 -2542.498737  1687.775452  3860.007737  1224.094215 -2975.118764
0.015600 -3457.910014   384.383602  3721.938268  2401.922836 -1871.684998 -3761.189854
0.016800  -985.010058  2949.642792  3186.083738  -473.022994 -3455.858113 -2158.130084
0.018000  1706.220701  3403.140240   980.833845 -2553.733665 -2972.150659   167.908628
0.019200  3070.910507  2268.712997 -1251.976056 -3272.030906 -1354.107602  2225.371876
0.020400  3154.785447   252.061476 -3034.936636 -2650.967560  1028.448205  3515.706281
0.021600  1678.010720 -2287.606479 -3473.815610  -338.309343  3270.331521  2825.919284
0.022800 -1161.168492 -3721.119458 -1637.873894  2481.659513  3494.182265   161.566389
0.024000 -3328.962894 -2659.509977  1279.384064  3571.861961  1436.563872 -2406.239355
0.025200 -3230.549441  -108.076903  3074.705186  2468.688145 -1099.038716 -3266.112085
0.026400 -1453.645741  2061.159459  3056.955972   375.367249 -2738.973047 -2545.681144
0.027600   725.459270  3134.820256  1749.227124 -1766.315737 -3179.731865  -731.781331
0.028800  2659.101819  2848.686475  -488.575551 -3294.861935 -2053.318277  1769.457511
0.030000  3445.212317   848.217004 -2843.821699 -3031.807131   561.401717  3483.171070
0.031200  2050.527424 -1950.882656 -3497.927495  -676.865999  2948.492626  2871.923646
0.032400  -735.913195 -3371.907611 -1812.595859  1930.149710  3222.329728   561.422095
0.033600 -2694.437222 -2601.518765   603.545560  2997.751525  1765.285051 -1551.913986
0.034800 -2972.018767  -823.590173  2307.490960  2655.436008  -188.811399 -2823.677684
0.036000 -2076.820258  1221.348474  3096.816272  1202.736198 -2237.864149 -2979.611698
0.037200   -32.281732  3015.587681  2358.331063 -1271.328615 -3362.619784 -1270.718740
0.038400  2438.720686  3121.895415  -108.372475 -3191.148327 -2277.083306  1462.852810
0.039600  3339.647458  1053.245168 -2494.994768 -2898.538701   254.824292  3016.077417
0.040800  2033.314507 -1387.684977 -3036.832488  -972.603589  2210.207767  2660.156656
0.042000   -91.090670 -2679.219339 -2022.426870  1045.127625  2838.884164  1213.182137
0.043200 -1883.328130 -2715.057665  -256.434949  2538.370999  2277.842187  -774.704348
0.044400 -2934.929096 -1520.718237  1811.146480  2958.320877   444.005593 -2671.085022
0.045600 -2499.300954   788.782572  3129.492464  1584.262669 -1957.883204 -3080.076440
0.046800  -358.652613  2813.641714  2461.337879  -953.709239 -3143.165487 -1412.613681
0.048000  2026.758176  2912.966147   206.958432 -2695.056053 -2238.168015   927.714327
0.049200  2873.431723  1298.971576 -1795.040084 -2651.820406  -324.873199  2342.658055
0.050400  2176.086170  -600.540845 -2633.771905 -1493.336271  1439.748211  2660.330037
0.051600   679.921279 -2159.930865 -2428.417754   279.856447  2720.838124  1844.411780
0.052800 -1354.262667 -2942.710977  -885.369487  2319.190191  2682.708066  -319.639774
0.054000 -2964.452226 -1915.842817  1542.918377  3071.407191   747.998528 -2493.269007
0.055200 -2602.229799   512.788285  2939.236001  1697.095879 -1596.295119 -2853.958951
0.056400  -601.786344  2315.253251  2347.309199  -450.711618 -2630.889933 -1599.732362
0.057600  1319.168474  2600.096178   758.109806 -1962.701453 -2326.236630   108.172064
0.058800  2430.145892  1830.291814  -994.306291 -2646.979648 -1094.316760  1834.681813
0.060000  2571.752951   149.518519 -2522.001188 -2115.882711   943.864810  2884.587103
0.061200  1246.314614 -1968.228216 -2759.715943  -113.747942  2700.632959  2150.256643
0.062400 -1089.102285 -2967.973963 -1139.362414  2085.483974  2676.441430   -38.059876
0.063600 -2656.869947 -1967.616488  1124.440157  2775.033405  1005.162283 -1942.365460
0.064800 -2453.238910    11.329997  2386.220673  1850.234838  -891.179449 -2520.652408
0.066000 -1108.370029  1615.058886  2382.662855   283.760975 -2160.518157 -2008.162247
0.067200   572.434478  2497.016008  1411.773793 -1430.603633 -2578.729474  -560.082229
0.068400  2210.014135  2290.886419  -488.662417 -2716.926309 -1585.154122  1554.606948
0.069600  2788.038918   527.605217 -2411.312304 -2332.235751   664.529646  2811.688696
0.070800  1439.756582 -1699.406953 -2680.731846  -332.574016  2369.082056  2100.907025
0.072000  -723.128866 -2582.639192 -1259.944827  1539.834811  2402.104732   361.114542
0.073200 -2049.368260 -1965.064036   459.426657  2305.073815  1382.348318 -1193.131804
0.074400 -2341.634851  -668.370765  1833.994748  2144.497583  -154.298587 -2316.564508
0.075600 -1679.842516  1055.363423  2555.092121   903.114510 -1914.451607 -2390.009067
0.076800   121.438932  2514.779921  1786.200499 -1185.019674 -2698.808367  -842.900407
0.078000  2067.477199  2390.457574  -270.772950 -2563.027938 -1642.451050  1281.379379
0.079200  2573.398104   690.819818 -1997.057189 -2188.278716   291.710167  2347.890813
0.080400  1507.693290 -1129.380331 -2338.971011  -718.654046  1723.736268  2070.265860
0.081600   -66.665705 -2111.154753 -1603.844831   829.594145  2261.316443   970.008567
0.082800 -1507.350012 -2190.694441  -212.222782  2072.097812  1858.093055  -663.393075
0.084000 -2422.597639 -1208.717387  1542.418932  2421.202190   289.191376 -2239.549555
0.085200 -2004.491857   750.082843  2593.222659  1188.511646 -1701.542512 -2454.442215
0.086400  -139.363409  2323.630248  1868.309163  -881.696967 -2486.611074 -1002.339592
0.087600  1667.084339  2227.196865    75.828117 -2098.314228 -1685.264313   735.739721
0.088800  2205.604367  1010.322693 -1361.286008 -2079.800858  -318.107015  1810.346143
0.090000  1776.771739  -394.155429 -2115.679153 -1298.734541  1122.870742  2227.599687
0.091200   620.725451 -1801.283283 -2058.432139   248.563123  2309.650008  1517.754572
0.092400 -1197.112249 -2454.753208  -650.670799  1986.416202  2150.847986  -376.837800
0.093600 -2434.992595 -1447.505010  1347.241437  2428.075429   480.441380 -2013.217486
0.094800 -1976.991330   473.251927  2288.205366  1271.499851 -1262.472146 -2195.366216
0.096000  -451.228054  1780.291446  1818.699738  -318.549316 -2027.708699 -1290.184862
0.097200   983.781730  2069.766347   663.954388 -1545.510640 -1899.830464    42.233596
0.098400  1954.692789  1517.667293  -783.629231 -2172.784600  -910.295565  1512.423816
0.099600  2112.378025    88.847045 -2089.747155 -1695.852733   821.526207  2345.605632
0.100800   952.998432 -1649.775767 -2204.323978     6.484999  2205.541773  1640.068894
0.102000  -965.029511 -2340.440459  -795.972530  1700.687656  2051.029290  -124.470477
0.103200 -2093.604207 -1451.655032   931.628863  2113.328095   718.380446 -1495.013620
0.104400 -1849.644082    13.573700  1821.818695  1427.696477  -653.566638 -1934.532294
0.105600  -900.912530  1222.214388  1890.979804   277.187351 -1704.589845 -1644.835755
0.106800   440.327607  2046.572172  1164.861251 -1195.531184 -2127.587171  -406.684789
0.108000  1871.067845  1833.279702  -504.242553 -2231.808043 -1170.855137  1373.039683
