##TITLE=1D-13C-1-2-5-328-110-"no"-"yes"
##JCAMP-DX=5.01 $$ Magritek Spinsolve SPA1903 2.0.4.4423
##DATA TYPE=NMR FID
##DATA CLASS=NTUPLES
##ORIGIN=SPA1903 at Magritek
##OWNER=Copyright (C) 2025 by Magritek
##LONGDATE=2025/03/17 11:56:43.856
##.OBSERVE FREQUENCY=15.4860999900848
##.OBSERVE NUCLEUS=^13C
##.DELAY=( 20,  2000)
##.ACQUISITION MODE=SIMULTANEOUS
##.FIELD= 1.5
##.AVERAGES= 1
##.DIGITISER RES=16
##.SHIFT REFERENCE=(INTERNAL, Water, 4096, 0)
##$REFERENCE_POINT= 796.529    $$ Referencing label
$$      Distance of the zero axis position (in Hz) from the last data
$$      point (right edge); positive values -> right edge is below 0 Hz
##SPECTROMETER/DATA SYSTEM=Magritek
##SAMPLE DESCRIPTION=solvent=Water
$$ Bruker specific parameters
$$ --------------------------
##$AUNMP=   <proc_1d_nosref>
##$INSTRUM= <Magritek>
##$SI=      8192
##$TD=      8192
##$TDeff=   8192
##$SW=      322.870200
##$BF1=     15.4860999900848
##$SF=      15.4843965190859
##$LB=      0
##$PHC0=    217.6
##$PHC1=    0.0
##$REVERSE= yes
$$ End of Bruker specific parameters
$$ ---------------------------------
##NTUPLES=NMR FID
##VAR_NAME=        TIME,            FID/REAL,            FID/IMAG, PAGE NUMBER
##SYMBOL=             X,                   R,                   I,           N
##VAR_TYPE= INDEPENDENT,           DEPENDENT,           DEPENDENT,        PAGE
##VAR_FORM=        AFFN,                AFFN,                AFFN,        AFFN
##VAR_DIM=         8192,                8192,                8192,           2
##UNITS=        SECONDS,     ARBITRARY UNITS,     ARBITRARY UNITS,            
##FIRST=              0,                   0,                   0,           1
##LAST=    1.638199e+00,  -0.693875334554849,   0.262589078628714,           2
##MIN=                0,   -14283.3451291503,   -13508.8751866328,           1
##MAX=     1.638199e+00,    13714.9803519357,    14797.5181590197,           2
##FACTOR=             1,                   1,                   1,           1
##PAGE=N=1
##DATA TABLE=(X++(R..R)), XYDATA
0.000000     0.000000  5918.917768 -10919.021439 -13782.308628   661.418986 13714.980352
0.001200  9866.803122 -6012.648545 -14283.345129 -4886.184689 10254.189159 12465.219374
0.002400  -455.788645 -12392.277477 -9195.165602  4896.804118 12924.037970  5345.825852
0.003600 -8640.201677 -12090.284175  -889.588430 11315.328454  9831.214191 -3515.319310
0.004800 -12716.356330 -6556.384854  7786.391217 12808.498504  2024.701758 -11444.165396
0.006000 -10847.610087  3199.764724 13378.322566  7055.147181 -8063.935958 -13286.539064
0.007200 -2000.718570 11853.794366 10950.014486 -3597.971892 -13581.780416 -6616.028020
0.008400  8427.612459 12846.316717  1401.936979 -11563.013481 -10125.653757  3683.810034
0.009600 12737.629654  6043.361699 -7873.207616 -11860.183448 -1373.218129 10471.437519
0.010800  9430.688343 -2898.705946 -11540.162826 -6197.881362  6584.088984 11310.309233
0.012000  2305.441757 -9412.262768 -9689.961797  1697.462784 11060.929759  7133.427391
0.013200 -5582.107637 -11720.927269 -3463.433075  9278.922762 10659.080126 -1192.893329
0.014400 -11639.434555 -7772.116421  5778.993409 12357.796646  3578.005215 -9838.433438
0.015600 -10966.075084  1686.930417 12100.791203  7301.880600 -6411.069290 -11983.957267
0.016800 -2761.170729  9726.217843 10047.520190 -2021.903569 -11303.966333 -6483.560562
0.018000  6004.499743 10802.277599  2562.683628 -8475.667718 -9195.279296  1111.702329
0.019200  9999.533933  6742.698391 -4630.764658 -10320.179715 -3586.100629  7431.176846
0.020400  9590.218637   148.840246 -9705.743506 -7840.025927  3811.298137 10977.320596
0.021600  4602.577187 -7586.693877 -10501.877589  -397.155518 10337.186825  8318.156917
0.022800 -4139.514025 -11526.025063 -4502.297609  8150.632078 10569.317622  -171.239322
0.024000 -10555.104960 -7740.560905  4556.035878 11048.620583  3870.326767 -7918.081364
0.025200 -9782.189409   353.888318  9811.777885  7102.106776 -4116.344974 -10064.719880
0.026400 -3789.399336  6879.527034  9129.383478   386.190520 -8766.782885 -7264.843580
0.027600  3036.253908  9596.859622  4532.334511 -5966.767061 -9285.140560 -1402.916086
0.028800  8341.728914  8066.802620 -2216.463960 -9964.223146 -5436.139725  5888.139903
0.030000 10000.334261  1790.536142 -8745.455845 -8596.044949  2313.328015 10513.595942
0.031200  5541.007304 -6433.275451 -10255.920852 -1258.082025  9133.137922  8101.576348
0.032400 -2872.656219 -10176.655235 -4813.251446  6429.636139  9467.451374   789.369603
0.033600 -8505.577347 -7166.214937  2662.331862  8969.012456  4437.870488 -5311.875570
0.034800 -8550.894463 -1445.833086  7283.472371  7134.814059 -1511.522590 -8270.651632
0.036000 -5171.629836  4189.931050  8693.737436  2643.117141 -6867.314209 -8077.231964
0.037200   740.370839  8784.515137  6037.946055 -4267.125753 -9438.209499 -2894.241770
0.038400  7408.164292  8530.057388 -1089.795784 -9360.531897 -5846.235488  4938.653770
0.039600  9423.982416  2162.541024 -7634.645524 -7818.420720  1617.339211  8855.060678
0.040800  5057.333884 -4822.635632 -8526.790525 -1776.060520  6886.604350  6975.580599
0.042000 -1266.028845 -7757.652488 -4856.655104  3813.303930  7823.031062  2372.934515
0.043200 -5909.339834 -6995.926742   353.073779  7244.970280  5420.861337 -2975.364934
0.044400 -7920.225123 -3255.032743  5571.321259  7661.355522   229.501113 -7573.722092
0.045600 -6043.749701  2970.655086  8420.661457  3506.198151 -5892.097953 -8067.535532
0.046800   -79.809430  8060.940931  6030.708567 -3502.648322 -8535.438401 -2972.402319
0.048000  6166.267741  7607.384764  -393.583215 -7826.214412 -5402.545858  3617.043999
0.049200  7871.337472  2429.057895 -5677.509545 -6715.132927   271.494760  6799.302851
0.050400  5053.424411 -2753.909779 -7089.894810 -2836.507797  4680.130031  6526.574029
0.051600   646.239514 -6061.904366 -5619.196957  1702.938967  7168.514273  3908.296939
0.052800 -4291.817755 -7339.471344 -1345.931218  6451.337647  6411.870349 -1666.677987
0.054000 -7875.635909 -4261.222559  4823.925873  7894.106840  1012.581166 -7112.907164
0.055200 -6274.292157  2367.058805  7940.216072  3581.579786 -5125.746940 -7323.782119
0.056400  -445.911370  6772.486988  5486.946246 -2398.533149 -7083.959391 -3102.998836
0.057600  4424.571421  6446.493879   761.239844 -5716.367203 -5295.459768  1459.082418
0.058800  6412.843425  3642.965626 -3488.846969 -6436.297666 -1675.377385  5186.045341
0.060000  5917.663761  -606.471419 -6599.713415 -4520.030870  3272.048500  7104.634592
0.061200  2150.978177 -5526.296754 -6459.455432   627.088173  7076.018949  4741.142143
0.062400 -3642.075750 -7481.091102 -1892.675287  5989.054936  6296.761419 -1149.089517
0.063600 -7054.839766 -4211.755776  3826.814381  7040.450893  1458.434085 -5767.916161
0.064800 -5668.263684  1285.893902  6385.881557  3673.442545 -3329.745359 -6210.731385
0.066000 -1586.627592  4871.661927  5311.066750  -630.779949 -5656.176476 -3888.183533
0.067200  2437.014456  5888.969953  2348.508862 -4144.192488 -5744.283093  -279.771245
0.068400  5658.508529  4709.994323 -2076.002263 -6437.836271 -2925.797494  4350.231550
0.069600  6383.373533   382.298921 -6249.541046 -5042.135151  2558.486368  6932.726417
0.070800  2578.249460 -4962.146895 -6221.332700   289.063012  6331.971887  4390.186654
0.072000 -2949.306653 -6422.776666 -1888.435692  4748.038411  5346.268722  -502.087753
0.073200 -5477.242125 -3740.824159  2359.129157  5486.701237  2032.155844 -3764.637106
0.074400 -4984.139804  -254.464780  4725.469129  4067.108011 -1437.574860 -5310.010356
0.075600 -2860.799987  3188.907619  5529.730466  1039.884765 -4903.121391 -4836.465763
0.076800  1272.584184  5894.043204  3254.896171 -3503.558212 -6022.330053  -978.695317
0.078000  5415.384800  4990.816868 -1747.483743 -6201.184921 -2851.358084  3945.679375
0.079200  5763.330722   460.087289 -5366.102591 -4466.318590  1967.135205  5779.250202
0.080400  2354.894004 -3760.295112 -5074.436553  -309.006653  4660.760635  3970.417994
0.081600 -1468.785425 -5058.981729 -2471.619639  3020.745688  4757.642392   841.207986
0.082800 -3991.537853 -4108.249696   670.242486  4767.648872  3157.589366 -2406.219990
0.084000 -5133.810647 -1580.519126  3973.188966  4763.390546  -315.074197 -5180.346576
0.085200 -3709.795978  2513.941802  5738.835017  1734.588319 -4523.296257 -5090.173548
0.086400   735.651017  5617.277477  3456.502726 -3013.262870 -5666.883356 -1197.025703
0.087600  4680.127053  4593.976257 -1159.999951 -5259.481129 -2779.016369  2925.606127
0.088800  4849.218006   920.206370 -3923.899332 -3945.808253   688.213585  4370.232195
0.090000  2800.452593 -2032.813477 -4387.753784 -1562.645025  3097.147865  4157.322758
0.091200   259.125007 -4107.437955 -3617.565263  1400.441785  4875.935993  2361.337002
0.092400 -3178.702230 -4882.181016  -523.945431  4631.703097  4100.148136 -1671.803678
0.093600 -5458.916721 -2326.638217  3779.270138  5043.242872   -30.784009 -4944.533462
0.094800 -3655.893261  2112.499898  5193.417768  1779.223067 -3780.112418 -4475.366698
0.096000   352.882234  4500.388744  3035.917120 -1933.313370 -4413.691690 -1608.925656
0.097200  3056.527996  3973.287328    89.480524 -3800.884799 -3057.732207  1251.105734
0.098400  4013.809555  2061.736524 -2378.704988 -4080.818526  -824.780172  3567.464084
0.099600  3642.192834  -781.029505 -4300.544768 -2596.686466  2357.022205  4547.523503
0.100800  1108.356132 -3871.548677 -4080.813478   912.882166  4804.079165  2631.609281
0.102000 -2846.988554 -4732.510168  -687.968612  4201.039808  3800.519149 -1369.100836
0.103200 -4744.449300 -2109.592590  3066.166676  4257.348785   187.654252 -3911.109574
0.104400 -3097.456417  1384.355291  4004.387964  1742.175530 -2491.524249 -3601.401463
0.105600  -419.100547  3136.663130  2914.382624  -693.621188 -3439.948532 -2154.700713
0.106800  1705.316355  3648.485512  1222.423644 -2826.733436 -3531.858419   143.445933
0.108000  3767.038234  2799.367839 -1709.879994 -4249.131808 -1507.315377  3279.341938
