##TITLE=1D-13C-1-2-5-328-110-"no"-"yes"
##JCAMP-DX=5.01 $$ Magritek Spinsolve SPA1903 2.0.4.4423
##DATA TYPE=NMR FID
##DATA CLASS=NTUPLES
##ORIGIN=SPA1903 at Magritek
##OWNER=Copyright (C) 2025 by Magritek
##LONGDATE=2025/03/17 11:58:54.289
##.OBSERVE FREQUENCY=15.4860999900848
##.OBSERVE NUCLEUS=^13C
##.DELAY=( 20,  2000)
##.ACQUISITION MODE=SIMULTANEOUS
##.FIELD= 1.5
##.AVERAGES= 1
##.DIGITISER RES=16
##.SHIFT REFERENCE=(INTERNAL, Water, 4096, 0)
##$REFERENCE_POINT= 796.529    $$ Referencing label
$$      Distance of the zero axis position (in Hz) from the last data
$$      point (right edge); positive values -> right edge is below 0 Hz
##SPECTROMETER/DATA SYSTEM=Magritek
##SAMPLE DESCRIPTION=solvent=Water
$$ Bruker specific parameters
$$ --------------------------
##$AUNMP=   <proc_1d_nosref>
##$INSTRUM= <Magritek>
##$SI=      8192
##$TD=      8192
##$TDeff=   8192
##$SW=      322.870200
##$BF1=     15.4860999900848
##$SF=      15.4843965190859
##$LB=      0
##$PHC0=    217.1
##$PHC1=    0.0
##$REVERSE= yes
$$ End of Bruker specific parameters
$$ ---------------------------------
##NTUPLES=NMR FID
##VAR_NAME=        TIME,            FID/REAL,            FID/IMAG, PAGE NUMBER
##SYMBOL=             X,                   R,                   I,           N
##VAR_TYPE= INDEPENDENT,           DEPENDENT,           DEPENDENT,        PAGE
##VAR_FORM=        AFFN,                AFFN,                AFFN,        AFFN
##VAR_DIM=         8192,                8192,                8192,           2
##UNITS=        SECONDS,     ARBITRARY UNITS,     ARBITRARY UNITS,            
##FIRST=              0,                   0,                   0,           1
##LAST=    1.638199e+00, -0.0905296163395745,   0.353022502734033,           2
##MIN=                0,    -4661.4865023072,   -4521.14342338406,           1
##MAX=     1.638199e+00,    4511.15535654591,    4857.57711166871,           2
##FACTOR=             1,                   1,                   1,           1
##PAGE=N=1
##DATA TABLE=(X++(R..R)), XYDATA
0.000000     0.000000  1942.145180 -3545.895800 -4520.848295   208.234954  4511.155357
0.001200  3225.677966 -2000.439126 -4661.486502 -1568.388705  3350.120576  4069.215024
0.002400  -137.799349 -4057.763997 -3014.570670  1609.177981  4226.324685  1752.898466
0.003600 -2798.869932 -3964.812096  -351.215218  3685.127985  3285.106417 -1096.626652
0.004800 -4205.600173 -2229.377831  2530.499988  4271.182732   760.494447 -3764.631622
0.006000 -3697.534593   969.905508  4500.531295  2468.583360 -2664.409451 -4529.261356
0.007200  -756.191385  3985.130335  3762.913146 -1151.062450 -4612.288311 -2323.674481
0.008400  2822.386095  4409.082284   532.656280 -3927.862143 -3491.207939  1210.463359
0.009600  4333.644564  2107.156209 -2627.491436 -4059.257720  -552.739711  3538.329041
0.010800  3282.979356  -901.392872 -3928.724014 -2204.502750  2157.011209  3898.844611
0.012000   936.436335 -3151.807962 -3442.499962   435.325620  3826.331093  2608.019619
0.013200 -1831.305767 -4111.519076 -1353.412094  3147.535768  3827.381549  -246.137649
0.014400 -4080.331119 -2879.738442  1939.644371  4395.462331  1387.618453 -3389.306472
0.015600 -3939.019541   448.271351  4245.401746  2718.114095 -2158.145849 -4283.755754
0.016800 -1103.861686  3371.926667  3624.448347  -565.053855 -3947.980622 -2437.629329
0.018000  1961.681255  3865.614358  1086.077720 -2927.594456 -3367.290025   219.833307
0.019200  3501.190738  2559.824796 -1456.701413 -3720.751752 -1507.660399  2543.966051
0.020400  3570.543839   252.746566 -3459.894787 -2996.051622  1186.322600  3989.742510
0.021600  1881.884895 -2608.998035 -3928.233984  -358.470572  3713.749732  3192.917910
0.022800 -1327.714997 -4219.076130 -1842.465844  2839.566815  3959.309801   150.602846
0.024000 -3801.155899 -3005.690469  1477.861309  4064.601423  1610.331376 -2753.319721
0.025200 -3659.725137   -92.059734  3502.716272  2771.184790 -1287.413690 -3705.032873
0.026400 -1623.254238  2367.369286  3454.511865   383.014970 -3130.161867 -2866.461109
0.027600   858.147401  3552.064494  1951.653066 -2027.782719 -3585.982933  -793.966145
0.028800  3032.747375  3212.180774  -580.037188 -3732.330002 -2299.719549  2024.125938
0.030000  3895.400998   936.758975 -3234.483982 -3418.916592   666.504817  3957.160759
0.031200  2308.637865 -2243.089942 -3964.137604  -734.497038  3357.696171  3242.359606
0.032400  -871.078532 -3832.941928 -2031.396012  2210.322042  3637.336180   594.409846
0.033600 -3074.180154 -2928.047011   720.586199  3406.709845  1962.416081 -1796.880243
0.034800 -3354.487893  -879.197680  2632.265942  2975.899408  -256.896692 -3202.212387
0.036000 -2309.923354  1405.657610  3490.305676  1328.381059 -2536.175631 -3348.763630
0.037200    -4.146195  3420.381873  2637.556673 -1458.620666 -3795.765712 -1408.873167
0.038400  2777.345198  3512.397898  -157.102597 -3628.191640 -2547.363668  1689.539214
0.039600  3774.521829  1154.904345 -2843.927346 -3264.608683   329.500048  3430.241703
0.040800  2267.004331 -1618.310240 -3436.467418 -1060.190394  2527.084628  2989.508775
0.042000  -142.165106 -3033.823062 -2246.167111  1225.878371  3202.571016  1322.864843
0.043200 -2156.811908 -3040.653499  -246.061238  2874.325916  2526.564704  -915.798592
0.044400 -3300.646331 -1671.710450  2064.138539  3316.868892   460.249509 -3026.748140
0.045600 -2791.022422   927.683415  3530.212620  1757.076728 -2227.550419 -3463.841217
0.046800  -366.252796  3198.561111  2752.631827 -1115.041108 -3553.080788 -1556.274332
0.048000  2321.250354  3273.340822   188.420146 -3069.719422 -2494.248702  1104.429710
0.049200  3249.020221  1412.590200 -2064.343710 -2973.799807  -309.544603  2669.757371
0.050400  2411.099120  -728.155422 -2974.154692 -1639.620249  1660.487769  2972.813691
0.051600   715.193989 -2452.563088 -2700.672251   362.758090  3062.793522  2039.306820
0.052800 -1553.915212 -3298.980722  -960.460367  2631.652206  2999.692180  -391.570048
0.054000 -3341.463963 -2118.264932  1775.970792  3453.020244   808.380452 -2829.687441
0.055200 -2909.918286   621.881677  3318.374018  1874.181968 -1839.220146 -3206.375415
0.056400  -620.875631  2638.965454  2615.078037  -558.639902 -2970.794837 -1757.090668
0.057600  1525.816606  2915.957569   799.649130 -2245.125311 -2586.923376   168.690119
0.058800  2735.785826  2011.023482 -1161.973444 -2961.147842 -1177.950842  2085.597086
0.060000  2865.446956   124.956001 -2842.337450 -2342.560237  1099.258674  3228.498144
0.061200  1354.979422 -2240.753321 -3077.775544   -84.054029  3040.998525  2384.652739
0.062400 -1253.436961 -3331.692864 -1236.142902  2377.982287  2989.041577   -86.936513
0.063600 -3005.000207 -2173.468357  1305.729800  3115.172625  1084.940598 -2219.462846
0.064800 -2742.086372    63.895808  2708.829725  2037.962542 -1053.399660 -2820.209825
0.066000 -1191.189797  1849.078684  2645.173465   255.924145 -2436.362801 -2205.629962
0.067200   686.672833  2789.900413  1533.898713 -1633.673514 -2874.851425  -578.669564
0.068400  2492.157112  2529.694729  -589.886009 -3038.235229 -1735.707701  1763.460379
0.069600  3108.414749   553.065606 -2722.125537 -2590.371317   780.708086  3161.842629
0.070800  1569.113533 -1951.879433 -2997.011503  -325.987428  2686.137862  2318.694051
0.072000  -867.658728 -2906.761280 -1365.186785  1772.596508  2677.039420   344.147579
0.073200 -2332.486472 -2161.645652   577.304473  2585.837514  1488.496221 -1382.090294
0.074400 -2600.724607  -696.222775  2073.566778  2364.120565  -223.369584 -2591.370439
0.075600 -1829.263554  1213.732157  2833.860294   962.468328 -2163.598060 -2646.459075
0.076800   178.907393  2818.571845  1958.339707 -1361.872186 -3004.649674  -895.484564
0.078000  2342.886850  2650.317917  -354.197423 -2876.397028 -1798.398848  1476.186136
0.079200  2872.031753   713.693507 -2268.982620 -2413.897877   385.274269  2650.663450
0.080400  1637.902558 -1318.438068 -2603.844794  -736.834105  1964.638872  2276.366483
0.081600  -136.133166 -2366.203474 -1734.339528   981.603831  2514.418217  1021.894083
0.082800 -1713.002292 -2410.090104  -191.410018  2315.171742  2031.738659  -779.901614
0.084000 -2694.213222 -1299.515371  1751.758240  2678.699552   278.329615 -2512.404910
0.085200 -2204.262395   878.488826  2886.495476  1279.482163 -1937.708092 -2723.698525
0.086400  -108.124330  2611.612737  2051.667391 -1035.223623 -2779.587222 -1069.042604
0.087600  1900.661026  2470.118234    24.653833 -2367.522727 -1831.146266   880.891601
0.088800  2460.036823  1068.064114 -1557.405025 -2279.582743  -284.874635  2041.619659
0.090000  1925.476567  -501.221077 -2349.054460 -1382.294032  1286.741770  2447.023410
0.091200   634.358208 -2015.382440 -2245.438307   321.644698  2562.919818  1650.052394
0.092400 -1359.089062 -2710.440363  -674.097471  2230.399006  2362.384690  -466.956925
0.093600 -2717.327478 -1566.699840  1542.818403  2692.514042   478.669710 -2271.672522
0.094800 -2162.047545   590.496215  2558.297431  1361.333900 -1459.082004 -2427.311091
0.096000  -432.455479  2019.592607  1983.631039  -416.519328 -2263.448191 -1378.444595
0.097200  1144.546523  2280.190819   673.984647 -1741.845025 -2064.410882   107.367155
0.098400  2170.758930  1621.768198  -911.282892 -2389.273143  -958.650630  1706.722934
0.099600  2311.299180    44.320389 -2319.905137 -1830.603080   947.430441  2591.377497
0.100800  1010.206136 -1862.964840 -2423.167542    56.581920  2465.232751  1783.704772
0.102000 -1118.117968 -2595.240976  -831.396012  1926.274362  2254.174532  -199.863558
0.103200 -2344.554986 -1565.022025  1095.707280  2342.297397   724.159168 -1709.771876
0.104400 -2023.124700    83.738841  2032.224812  1519.738487  -792.429918 -2135.843844
0.105600  -924.227666  1398.480722  2052.136569   241.059754 -1897.982088 -1767.895203
0.106800   535.824120  2244.789691  1226.051460 -1359.741995 -2319.536306  -395.828352
0.108000  2076.313596  1986.728688  -605.923402 -2470.060867 -1252.567412  1553.580110
