##TITLE=1D-13C-1-2-5-328-110-"no"-"yes"
##JCAMP-DX=5.01 $$ Magritek Spinsolve SPA1903 2.0.4.4423
##DATA TYPE=NMR FID
##DATA CLASS=NTUPLES
##ORIGIN=SPA1903 at Magritek
##OWNER=Copyright (C) 2025 by Magritek
##LONGDATE=2025/03/17 11:56:37.082
##.OBSERVE FREQUENCY=15.4860999900848
##.OBSERVE NUCLEUS=^13C
##.DELAY=( 20,  2000)
##.ACQUISITION MODE=SIMULTANEOUS
##.FIELD= 1.5
##.AVERAGES= 1
##.DIGITISER RES=16
##.SHIFT REFERENCE=(INTERNAL, Water, 4096, 0)
##$REFERENCE_POINT= 796.529    $$ Referencing label
$$      Distance of the zero axis position (in Hz) from the last data
$$      point (right edge); positive values -> right edge is below 0 Hz
##SPECTROMETER/DATA SYSTEM=Magritek
##SAMPLE DESCRIPTION=solvent=Water
$$ Bruker specific parameters
$$ --------------------------
##$AUNMP=   <proc_1d_nosref>
##$INSTRUM= <Magritek>
##$SI=      8192
##$TD=      8192
##$TDeff=   8192
##$SW=      322.870200
##$BF1=     15.4860999900848
##$SF=      15.4843965190859
##$LB=      0
##$PHC0=    217.6
##$PHC1=    0.0
##$REVERSE= yes
$$ End of Bruker specific parameters
$$ ---------------------------------
##NTUPLES=NMR FID
##VAR_NAME=        TIME,            FID/REAL,            FID/IMAG, PAGE NUMBER
##SYMBOL=             X,                   R,                   I,           N
##VAR_TYPE= INDEPENDENT,           DEPENDENT,           DEPENDENT,        PAGE
##VAR_FORM=        AFFN,                AFFN,                AFFN,        AFFN
##VAR_DIM=         8192,                8192,                8192,           2
##UNITS=        SECONDS,     ARBITRARY UNITS,     ARBITRARY UNITS,            
##FIRST=              0,                   0,                   0,           1
##LAST=    1.638199e+00,  -0.934794069938654,   0.264495221580165,           2
##MIN=                0,   -15127.6736640586,   -14333.4240488804,           1
##MAX=     1.638199e+00,    14529.3529933785,    15676.9823424185,           2
##FACTOR=             1,                   1,                   1,           1
##PAGE=N=1
##DATA TABLE=(X++(R..R)), XYDATA
0.000000     0.000000  6264.015614 -11603.946932 -14603.472964   707.940340 14529.352993
0.001200 10456.680893 -6367.525157 -15127.673664 -5176.885928 10861.057242 13206.784858
0.002400  -477.041154 -13133.738248 -9745.932118  5184.154570 13689.077493  5669.081535
0.003600 -9156.018693 -12820.652938  -951.061080 11999.560328 10429.336814 -3732.310585
0.004800 -13487.310581 -6940.692511  8264.134411 13568.440453  2125.272968 -12132.173771
0.006000 -11475.584950  3419.213425 14170.393601  7431.837303 -8564.109974 -14046.172039
0.007200 -2087.377481 12533.869002 11554.416161 -3819.403962 -14351.319514 -6966.112197
0.008400  8924.427414 13547.716169  1448.510791 -12204.391085 -10674.622270  3893.442644
0.009600 13436.579515  6367.723781 -8322.841649 -12510.184781 -1425.904095 11059.576222
0.010800  9940.389487 -3061.787703 -12170.583271 -6538.189271  6957.630562 11943.694968
0.012000  2410.490909 -9953.227710 -10203.579794  1823.680872 11666.065958  7492.004945
0.013200 -5910.031014 -12362.094716 -3618.835898  9822.102048 11207.936653 -1316.510062
0.014400 -12278.310701 -8145.249348  6123.023704 12988.530065  3713.154963 -10384.234055
0.015600 -11513.159613  1835.863849 12739.694567  7632.395777 -6786.130234 -12582.337801
0.016800 -2852.458483 10245.316763 10534.677247 -2171.392551 -11888.309896 -6773.925101
0.018000  6348.153155 11333.978668  2644.453871 -8924.862709 -9632.555688  1211.352930
0.019200 10516.962169  7049.659904 -4903.900697 -10846.270630 -3723.186455  7840.205822
0.020400 10048.372568   105.233345 -10211.125032 -8198.424569  4052.341420 11527.126241
0.021600  4772.910858 -8009.063844 -10995.731638  -341.579708 10876.116517  8669.974575
0.022800 -4411.358807 -12091.610714 -4654.827128  8598.070469 11047.098455  -266.423565
0.024000 -11096.399974 -8045.688280  4843.547698 11557.852125  3985.505219 -8325.711728
0.025200 -10207.337163   429.542474 10297.134324  7388.858161 -4372.899212 -10529.294401
0.026400 -3900.102313  7237.040149  9522.555222   343.710533 -9200.970018 -7563.943658
0.027600  3242.496723 10050.968038  4679.286229 -6290.582445 -9691.916737 -1403.060764
0.028800  8755.819853  8399.486717 -2385.198161 -10439.536089 -5609.456247  6231.776838
0.030000 10433.530725  1786.398230 -9175.539726 -8929.377286  2497.824229 10993.713369
0.031200  5715.494249 -6785.024902 -10679.367325 -1218.158087  9575.544108  8403.253532
0.032400 -3067.109849 -10615.105835 -4950.848555  6771.083878  9851.697447   733.246465
0.033600 -8907.071386 -7412.330042  2853.093789  9353.622480  4554.129998 -5597.992002
0.034800 -8892.085339 -1430.334612  7627.339170  7386.873342 -1647.127580 -8621.155297
0.036000 -5320.049209  4428.260053  9036.994335  2677.643786 -7192.266201 -8367.226499
0.037200   853.127819  9165.860484  6211.888372 -4518.622167 -9812.307652 -2924.524749
0.038400  7764.718647  8823.881734 -1236.966904 -9766.922741 -6003.444306  5220.182048
0.039600  9785.469833  2139.945484 -7985.621692 -8061.001002  1778.194921  9213.938214
0.040800  5169.893159 -5085.147160 -8831.721848 -1739.305002  7198.462727  7171.775417
0.042000 -1413.444375 -8057.215658 -4954.429383  4028.193084  8098.211425  2371.066961
0.043200 -6197.872577 -7209.619963   467.795587  7528.119442  5539.662129 -3163.179132
0.044400 -8199.499069 -3287.411686  5843.114918  7909.871182   131.315114 -7894.577316
0.045600 -6174.833548  3181.289035  8709.766182  3527.230312 -6176.602987 -8306.159948
0.046800    44.527023  8391.438188  6149.397071 -3735.130897 -8821.658742 -2958.854462
0.048000  6455.040419  7815.774376  -523.773218 -8138.185177 -5501.452060  3857.651933
0.049200  8134.174328  2386.453759 -5952.187022 -6880.664781   405.702017  7066.385644
0.050400  5135.456452 -2955.176971 -7326.842472 -2821.248627  4923.020334  6690.516296
0.051600   542.991512 -6307.247701 -5726.108223  1861.705820  7406.057917  3928.825295
0.052800 -4525.096220 -7549.005288 -1267.171642  6729.023781  6542.963391 -1843.921181
0.054000 -8151.762299 -4296.188137  5087.752211  8129.025596   913.563307 -7424.076845
0.055200 -6393.380721  2581.780590  8210.737013  3573.435079 -5396.972895 -7519.084301
0.056400  -334.383994  7057.016341  5581.515817 -2618.231352 -7328.311482 -3063.451807
0.057600  4666.639419  6590.593965   655.174334 -5945.343272 -5381.716848  1615.037507
0.058800  6629.586095  3651.494189 -3690.533987 -6600.387244 -1613.583143  5396.915047
0.060000  6033.958692  -737.026987 -6832.739616 -4567.429009  3479.743284  7311.945262
0.061200  2090.726362 -5766.881536 -6591.129353   762.171302  7325.437561  4793.051665
0.062400 -3866.679471 -7696.922958 -1814.401517  6255.592316  6415.514832 -1321.559574
0.063600 -7300.547050 -4235.069681  4049.681373  7232.416564  1381.251985 -6016.383301
0.064800 -5761.748823  1460.862803  6596.017183  3683.150822 -3530.537694 -6371.206622
0.066000 -1499.403568  5095.953374  5402.914957  -772.573616 -5843.279634 -3892.619224
0.067200  2605.403471  6036.864852  2302.704290 -4333.519492 -5856.176355  -169.743997
0.068400  5863.478581  4756.193693 -2236.936468 -6609.837550 -2893.404691  4554.309129
0.069600  6509.547051   278.345226 -6464.008251 -5103.245086  2742.615299  7132.761830
0.070800  2531.802520 -5192.851880 -6342.221012   428.450612  6554.788962  4406.170025
0.072000 -3153.307115 -6589.530134 -1810.514022  4974.462346  5420.856983  -659.761048
0.073200 -5662.980000 -3735.344190  2528.892821  5608.671254  1962.527907 -3939.700528
0.074400 -5055.628888  -133.573616  4881.995593  4068.756781 -1579.867938 -5425.138237
0.075600 -2825.137689  3332.648219  5622.629416   956.013238 -5072.695467 -4881.711758
0.076800  1417.061081  6044.493969  3224.521838 -3683.154342 -6134.581479  -874.411795
0.078000  5616.082861  5034.197908 -1927.989534 -6368.296970 -2795.370772  4143.104516
0.079200  5855.180042   337.280146 -5552.008076 -4486.419830  2147.961395  5934.432428
0.080400  2281.049589 -3957.098131 -5142.411464  -183.856575  4818.186401  3976.462618
0.081600 -1625.378286 -5179.487952 -2409.611095  3186.800501  4817.993538   730.567311
0.082800 -4128.487612 -4114.888303   794.362632  4884.943771  3120.984328 -2553.699872
0.084000 -5218.878253 -1504.635740  4121.250729  4797.383529  -433.074026 -5314.191765
0.085200 -3706.584763  2661.301829  5845.467813  1656.741762 -4693.983675 -5147.655331
0.086400   868.456237  5775.801595  3429.894387 -3198.845093 -5773.293268 -1100.199984
0.087600  4865.643854  4629.136177 -1324.312837 -5407.539766 -2723.726550  3109.368670
0.088800  4928.238124   811.802617 -4075.807648 -3952.631125   822.288509  4482.335208
0.090000  2756.394493 -2174.957029 -4447.580366 -1479.845312  3214.383031  4166.697554
0.091200   174.121823 -4196.399922 -3610.367858  1514.018910  4959.594587  2306.600621
0.092400 -3305.540531 -4932.213969  -439.443498  4751.183712  4122.641196 -1792.097856
0.093600 -5578.186311 -2274.380829  3932.842568  5094.725503  -148.547829 -5087.357932
0.094800 -3650.154102  2256.522560  5294.350373  1705.315623 -3936.644601 -4509.620119
0.096000   493.987690  4622.875116  2992.917632 -2068.667631 -4472.240020 -1522.778540
0.097200  3177.945275  3990.818055   -23.352628 -3894.559565 -3019.580015  1360.295144
0.098400  4055.023857  1994.914701 -2472.432679 -4096.853180  -745.460914  3647.347335
0.099600  3624.837725  -876.180085 -4363.296285 -2547.549493  2454.112988  4582.140219
0.100800  1036.401300 -3967.773875 -4079.734111  1017.409639  4885.431016  2586.647593
0.102000 -2967.004833 -4779.814852  -595.856857  4314.173626  3788.750970 -1491.626491
0.103200 -4815.680491 -2037.098069  3192.657973  4281.786813    69.625088 -4018.076949
0.104400 -3052.230891  1515.248739  4052.880401  1651.382763 -2602.514008 -3598.269813
0.105600  -308.982868  3213.793996  2853.796307  -817.426549 -3464.722195 -2069.001721
0.106800  1785.408424  3634.847640  1137.685679 -2894.749554 -3505.938897   236.832194
0.108000  3805.250759  2740.611677 -1791.623930 -4261.524188 -1439.145640  3361.268303
