##TITLE=1D-13C-1-5-5-328-110-"no"-"yes"
##JCAMP-DX=5.01 $$ Magritek Spinsolve SPA1903 2.0.4.4423
##DATA TYPE=NMR FID
##DATA CLASS=NTUPLES
##ORIGIN=SPA1903 at Magritek
##OWNER=Copyright (C) 2025 by Magritek
##LONGDATE=2025/02/12 14:32:22.976
##.OBSERVE FREQUENCY=15.4861775226891
##.OBSERVE NUCLEUS=^13C
##.DELAY=( 20,  5000)
##.ACQUISITION MODE=SIMULTANEOUS
##.FIELD= 1.5
##.AVERAGES= 1
##.DIGITISER RES=16
##.SHIFT REFERENCE=(INTERNAL, Water, 4096, 0)
##$REFERENCE_POINT= 796.520    $$ Referencing label
$$      Distance of the zero axis position (in Hz) from the last data
$$      point (right edge); positive values -> right edge is below 0 Hz
##SPECTROMETER/DATA SYSTEM=Magritek
##SAMPLE DESCRIPTION=solvent=Water
$$ Bruker specific parameters
$$ --------------------------
##$AUNMP=   <proc_1d_nosref>
##$INSTRUM= <Magritek>
##$SI=      8192
##$TD=      8192
##$TDeff=   8192
##$SW=      322.868600
##$BF1=     15.4861775226891
##$SF=      15.4844740431616
##$LB=      0
##$PHC0=    217.9
##$PHC1=    0.0
##$REVERSE= yes
$$ End of Bruker specific parameters
$$ ---------------------------------
##NTUPLES=NMR FID
##VAR_NAME=        TIME,            FID/REAL,            FID/IMAG, PAGE NUMBER
##SYMBOL=             X,                   R,                   I,           N
##VAR_TYPE= INDEPENDENT,           DEPENDENT,           DEPENDENT,        PAGE
##VAR_FORM=        AFFN,                AFFN,                AFFN,        AFFN
##VAR_DIM=         8192,                8192,                8192,           2
##UNITS=        SECONDS,     ARBITRARY UNITS,     ARBITRARY UNITS,            
##FIRST=              0,                   0,                   0,           1
##LAST=    1.638199e+00,  -0.151536057088349,   0.117967601856046,           2
##MIN=                0,   -166.590989095414,   -163.367832507071,           1
##MAX=     1.638199e+00,    160.233273185844,    172.171207982398,           2
##FACTOR=             1,                   1,                   1,           1
##PAGE=N=1
##DATA TABLE=(X++(R..R)), XYDATA
0.000000     0.000000    70.753495  -121.550583  -160.959045     1.299972   157.928915
0.001200   116.767961   -66.692979  -166.590989   -61.504567   113.789588   148.308000
0.002400     5.328654  -141.042921  -117.667608    50.368762   153.083605    70.055618
0.003600   -94.661925  -142.372819   -20.634991   128.398324   123.746916   -31.100421
0.004800  -153.708226   -88.701178    84.444251   152.530107    39.919500  -127.244503
0.006000  -138.878077    24.239299   157.754004    99.595425   -80.334801  -162.836020
0.007200   -42.287554   131.578643   144.774605   -22.066096  -161.068651   -98.580148
0.008400    86.338065   160.225838    37.640152  -129.724596  -138.425340    20.505652
0.009600   151.921398    96.473217   -75.533618  -151.949769   -42.463920   118.045848
0.010800   133.328503    -9.808120  -139.308348  -101.073004    59.085669   145.870126
0.012000    54.587170  -104.120996  -136.800498    -8.026430   135.078988   116.483426
0.013200   -47.098559  -153.302803   -72.717781    99.070076   150.218298    16.373371
0.014400  -139.604589  -124.695821    46.113927   160.233273    78.119146   -99.496448
0.015600  -153.055396   -16.120204   141.155823   122.651442   -48.131090  -155.765531
0.016800   -70.573915   101.738846   146.387813    14.464770  -134.304863  -116.152121
0.018000    40.343106   147.697296    75.937751   -85.673905  -141.445061   -27.038772
0.019200   118.030679   120.198142   -20.924982  -136.824535   -88.328017    67.386433
0.020400   141.977145    43.264081  -108.900989  -131.587724    10.157611   143.198727
0.021600   100.013491   -67.463605  -154.608805   -53.513144   114.080395   142.608890
0.022800    -9.702208  -147.377683  -102.609012    68.675178   157.497088    53.814863
0.024000  -114.809852  -138.806589     8.839449   144.202545   102.177688   -64.355648
0.025200  -145.772068   -50.229597   103.469294   130.834125    -1.840791  -130.071716
0.026400  -100.943678    49.268461   141.175602    62.470978   -88.539334  -131.956032
0.027600   -13.289623   123.076458   110.563602   -35.537627  -142.399959   -76.989565
0.028800    83.054183   140.745845    26.983456  -124.226126  -121.040182    33.367464
0.030000   149.748811    84.338834   -83.518366  -149.920530   -28.357861   129.253107
0.031200   125.042709   -30.738524  -148.441749   -84.074145    84.129386   147.345305
0.032400    27.584148  -121.558985  -116.743388    28.841994   138.689385    78.049680
0.033600   -75.497233  -134.857876   -31.628873   106.771052   115.534941   -14.061895
0.034800  -126.049395   -88.901910    58.395798   134.659818    47.390669   -97.149146
0.036000  -124.830381    -1.114525   128.945360   102.060668   -52.639687  -143.984010
0.037200   -61.354017    99.863679   137.140603     5.543938  -134.760979  -109.092246
0.038400    52.145560   149.787272    60.268289  -100.684033  -136.298443    -3.190624
0.039600   133.697220   100.184795   -53.196636  -138.753944   -55.334047    95.312686
0.040800   129.521424     4.952814  -120.696968   -98.147669    42.613856   129.986617
0.042000    59.135814   -83.081580  -123.735645   -17.666837   110.665882   106.089465
0.043200   -26.933908  -129.112610   -75.745049    70.822740   129.917749    31.774606
0.044400  -108.134478  -118.598633    18.802956   131.821135    83.580782   -68.952000
0.045600  -137.856690   -38.980622   111.011145   124.224039   -19.999386  -137.903061
0.046800   -88.158564    69.515398   139.357208    35.686852  -110.149217  -118.392230
0.048000    17.107283   131.331003    82.444461   -65.775817  -132.566138   -35.512188
0.049200   100.204611   113.372660    -8.760680  -118.073349   -83.311537    50.913327
0.050400   125.468785    48.280817   -86.171824  -117.441968    -6.739853   111.816743
0.051600    96.695969   -38.214184  -131.401253   -61.289301    85.002650   128.901647
0.052800    16.585081  -120.393192  -106.969340    39.065614   136.600072    67.274624
0.054000   -86.355143  -131.583043   -13.172120   120.529972   106.580155   -40.344542
0.055200  -135.247530   -63.399729    86.509300   127.390152    12.226476  -112.792894
0.056400  -100.611707    33.825330   125.181414    62.647588   -72.664300  -117.456169
0.057600   -23.734191    99.649346   102.013555   -18.680914  -117.112611   -74.157022
0.058800    60.492127   122.265380    36.722668   -93.915795  -112.124784     7.760100
0.060000   120.744336    88.376870   -56.421316  -131.659648   -45.013013    96.924910
0.061200   121.476886    -5.410945  -125.489045   -91.832779    54.407977   132.732968
0.062400    46.228230  -101.337401  -121.946111     5.166656   123.131836    88.569132
0.063600   -53.558538  -129.553872   -44.636277    90.363061   111.809195    -1.773263
0.064800  -111.281583   -85.914073    44.427299   120.766943    49.626679   -80.852769
0.066000  -110.542306   -11.346002   105.603553    93.954635   -30.908313  -118.320360
0.067200   -63.441855    68.954287   120.064416    21.423744  -104.654557  -103.536918
0.068400    23.542326   126.213827    72.518484   -71.366881  -124.613980   -25.332194
0.069600   108.078936   109.074121   -25.608797  -127.339535   -70.677680    71.641171
0.070800   123.145551    21.557086  -104.238652  -102.501265    22.604921   118.442708
0.072000    67.598797   -65.127835  -116.731887   -26.482197    92.273224   100.946992
0.073200   -12.523476  -107.823530   -72.415984    50.542675   115.944707    41.286332
0.074400   -85.082092  -108.840204    -0.572669   109.090079    86.110915   -43.719816
0.075600  -121.523000   -53.658519    83.070307   119.686445     5.327227  -116.681774
0.076800   -95.464547    42.951646   127.383372    51.118099   -87.534209  -118.879052
0.078000    -4.956544   116.233464    91.351365   -44.105700  -122.019097   -51.068310
0.079200    80.187187   110.904417     7.257428  -107.255261   -87.758675    35.224078
0.080400   114.323426    53.948743   -69.102928  -107.699791   -15.989795    94.767586
0.081600    90.650141   -22.838350  -110.774139   -63.368459    60.228852   112.646057
0.082800    28.215207   -91.595040  -102.758775    11.659668   114.270584    76.396262
0.084000   -54.138602  -120.027907   -36.145663    94.164197   106.276351   -13.012182
0.085200  -117.389097   -76.146881    59.565315   121.501017    32.415655   -92.286399
0.086400  -102.065922    12.612136   112.994489    73.097594   -55.062887  -113.628063
0.087600   -35.120381    84.633489    98.762466    -6.098347  -103.859074   -75.192364
0.088800    42.510753   108.421350    44.291648   -73.483566  -104.429450    -9.081323
0.090000    96.005669    85.653170   -30.350018  -111.578460   -55.412651    68.176972
0.091200   110.164639    17.587993   -98.883836   -94.360294    29.479632   116.929207
0.092400    60.708813   -72.558099  -115.705374   -13.700082   104.343053    93.231724
0.093600   -30.377666  -115.688298   -55.769093    72.584360   108.735991    12.655606
0.094800   -96.330020   -88.862336    26.970253   109.845598    57.897212   -61.250031
0.096000  -104.496878   -21.023717    87.428112    89.135720   -13.308750  -102.121670
0.097200   -67.241154    51.193354   105.851039    33.498580   -79.644536   -98.483583
0.098400     2.558824    99.876620    77.771500   -43.742571  -113.350973   -39.104985
0.099600    81.173638   103.694849     1.422795  -107.188113   -82.434672    44.611874
0.100800   114.827540    42.930705   -81.787805  -105.088870     2.917947   106.523726
0.102000    77.946933   -43.750611  -110.309217   -42.082277    76.677155    98.852533
0.103200     0.270995   -98.320455   -75.154000    35.237329   103.117226    44.657634
0.104400   -65.931327   -95.077839   -11.124631    85.029419    82.532283   -22.339635
0.105600   -99.521389   -55.254670    57.116946   101.766671    21.365329   -86.678937
0.106800   -90.773783    17.781348   106.539920    64.489815   -59.462655  -108.759784
0.108000   -24.128906    91.303099    93.000994   -19.875772  -109.121154   -63.542362
