##TITLE=1D-13C-1-2-5-328-110-"no"-"yes"
##JCAMP-DX=5.01 $$ Magritek Spinsolve SPA1903 2.0.4.4423
##DATA TYPE=NMR FID
##DATA CLASS=NTUPLES
##ORIGIN=SPA1903 at Magritek
##OWNER=Copyright (C) 2025 by Magritek
##LONGDATE=2025/03/17 11:56:15.907
##.OBSERVE FREQUENCY=15.4860999900848
##.OBSERVE NUCLEUS=^13C
##.DELAY=( 20,  2000)
##.ACQUISITION MODE=SIMULTANEOUS
##.FIELD= 1.5
##.AVERAGES= 1
##.DIGITISER RES=16
##.SHIFT REFERENCE=(INTERNAL, Water, 4096, 0)
##$REFERENCE_POINT= 796.529    $$ Referencing label
$$      Distance of the zero axis position (in Hz) from the last data
$$      point (right edge); positive values -> right edge is below 0 Hz
##SPECTROMETER/DATA SYSTEM=Magritek
##SAMPLE DESCRIPTION=solvent=Water
$$ Bruker specific parameters
$$ --------------------------
##$AUNMP=   <proc_1d_nosref>
##$INSTRUM= <Magritek>
##$SI=      8192
##$TD=      8192
##$TDeff=   8192
##$SW=      322.870200
##$BF1=     15.4860999900848
##$SF=      15.4843965190859
##$LB=      0
##$PHC0=    217.4
##$PHC1=    0.0
##$REVERSE= yes
$$ End of Bruker specific parameters
$$ ---------------------------------
##NTUPLES=NMR FID
##VAR_NAME=        TIME,            FID/REAL,            FID/IMAG, PAGE NUMBER
##SYMBOL=             X,                   R,                   I,           N
##VAR_TYPE= INDEPENDENT,           DEPENDENT,           DEPENDENT,        PAGE
##VAR_FORM=        AFFN,                AFFN,                AFFN,        AFFN
##VAR_DIM=         8192,                8192,                8192,           2
##UNITS=        SECONDS,     ARBITRARY UNITS,     ARBITRARY UNITS,            
##FIRST=              0,                   0,                   0,           1
##LAST=    1.638199e+00,  -0.386976214528805,   0.317841865949554,           2
##MIN=                0,   -17965.5172591806,   -16991.9932362709,           1
##MAX=     1.638199e+00,    17199.7509679339,    18604.1290764857,           2
##FACTOR=             1,                   1,                   1,           1
##PAGE=N=1
##DATA TABLE=(X++(R..R)), XYDATA
0.000000     0.000000  7447.331157 -13786.360421 -17321.787051   825.115723 17199.750968
0.001200 12426.065929 -7478.283709 -17965.517259 -6240.956562 12880.214460 15760.637763
0.002400  -532.571715 -15640.001323 -11606.412468  6187.741256 16312.784465  6723.338929
0.003600 -10938.173530 -15234.812872 -1039.689635 14288.984457 12298.686297 -4520.208691
0.004800 -15981.251456 -8129.050110  9871.531870 16028.109337  2369.816910 -14408.687461
0.006000 -13416.008256  4196.054638 16652.777012  8588.909310 -10117.955361 -16417.392909
0.007200 -2367.761581 14718.922865 13512.759339 -4542.734186 -16843.459166 -8106.922020
0.008400 10513.775278 15859.660227  1636.779476 -14328.041293 -12485.503412  4602.882051
0.009600 15770.062868  7433.038633 -9815.693032 -14689.331731 -1613.312554 13050.903236
0.010800 11642.160253 -3711.292676 -14354.876967 -7567.571791  8332.496320 13989.593305
0.012000  2611.834363 -11782.453714 -11802.576763  2347.090742 13658.885470  8560.897409
0.013200 -7076.864147 -14378.134161 -3978.681833 11583.927221 12900.080017 -1776.324542
0.014400 -14284.932095 -9239.444588  7249.876437 14993.669698  4129.952246 -12121.938975
0.015600 -13243.851121  2293.602131 14789.389564  8700.295255 -7984.151997 -14550.890917
0.016800 -3166.783549 11975.096699 12154.796016 -2678.770991 -13852.424686 -7704.718359
0.018000  7536.251828 13113.378841  2879.147985 -10475.195445 -11100.474771  1614.455188
0.019200 12302.186386  8001.381986 -5948.662253 -12550.226933 -4013.834862  9262.223537
0.020400 11457.048793  -179.219104 -11867.309491 -9222.681600  4950.159018 13269.576626
0.021600  5198.941917 -9426.820219 -12485.924513   -88.554152 12560.602512  9723.024186
0.022800 -5305.793894 -13845.151652 -5080.360113 10035.682103 12537.102984  -572.726817
0.024000 -12783.600073 -9033.944030  5751.941499 13230.343117  4357.071389 -9718.782298
0.025200 -11636.644928   743.889811 11936.340662  8289.595784 -5285.246578 -12073.527371
0.026400 -4216.072158  8496.629566 10838.753318    99.397998 -10716.000056 -8459.753049
0.027600  4055.046119 11524.670492  5009.492309 -7453.144294 -10933.543567 -1242.613238
0.028800 10138.127455  9328.821260 -3070.970735 -11895.474156 -6027.800849  7326.327786
0.030000 11693.927626  1696.730502 -10516.368397 -9917.498548  3103.402861 12482.916923
0.031200  6209.372658 -7920.945043 -11999.013984 -1090.742921 10955.025491  9340.779959
0.032400 -3716.524390 -12081.240859 -5400.775876  7917.745682 11132.559213   521.979935
0.033600 -10281.890118 -8210.978515  3542.591387 10645.218010  4893.183649 -6626.984617
0.034800 -10013.910964 -1252.447570  8848.448368  8117.545211 -2250.293259 -9773.486050
0.036000 -5659.748176  5279.499401 10077.892167  2638.349473 -8286.142374 -9173.870788
0.037200  1326.649497 10321.586125  6638.324660 -5335.141039 -10886.084886 -2950.183693
0.038400  8850.148185  9697.826344 -1688.992346 -10980.140018 -6436.143195  6107.461038
0.039600 10864.177280  2081.720659 -9098.890233 -8856.221458  2282.884638 10391.969461
0.040800  5539.019641 -5983.635484 -9842.571329 -1598.265296  8259.531040  7827.379601
0.042000 -1926.983982 -9093.934187 -5257.270663  4825.445175  9013.345095  2267.161346
0.043200 -7171.444111 -7829.213140   945.201525  8476.470274  5824.932523 -3859.612046
0.044400 -9048.246344 -3256.073026  6744.415869  8557.552587  -270.705828 -8822.046968
0.045600 -6495.579614  3838.867161  9555.712228  3547.864012 -7042.798048 -9010.125254
0.046800   412.938737  9378.998273  6489.135471 -4440.448896 -9683.131032 -2949.084790
0.048000  7328.344086  8505.065826  -910.431088 -9152.373064 -5833.551393  4631.887546
0.049200  8995.660456  2270.880744 -6847.167419 -7443.024415   839.996936  7970.078654
0.050400  5391.640431 -3672.070873 -8089.117061 -2677.319207  5737.779278  7176.035028
0.051600   151.676132 -7085.500528 -5970.010189  2446.114053  8121.722556  3892.885189
0.052800 -5256.767086 -8067.041227  -970.623433  7483.951432  6880.597393 -2355.988837
0.054000 -8926.910899 -4363.864842  5847.849825  8774.900321   609.006800 -8290.005334
0.055200 -6727.685999  3189.734894  9010.613863  3580.877888 -6198.842183 -8138.517052
0.056400    27.837352  7946.740173  5865.969571 -3286.533844 -8075.716546 -2968.146934
0.057600  5450.028225  7087.531691   277.745085 -6711.377387 -5596.081709  2207.237116
0.058800  7278.627140  3559.257849 -4363.754254 -7030.960420 -1323.021943  6069.372453
0.060000  6299.169119 -1216.525472 -7482.556021 -4566.209516  4124.298835  7781.617680
0.061200  1839.815215 -6409.653351 -6882.766940  1169.153534  7983.115320  4887.375064
0.062400 -4503.955987 -8263.628435 -1566.718337  6978.420752  6711.190107 -1781.922223
0.063600 -7959.898542 -4286.369335  4706.739470  7788.172527  1108.110186 -6770.920841
0.064800 -6023.403668  1989.136696  7233.207404  3655.357644 -4181.598254 -6859.078031
0.066000 -1199.871589  5808.463747  5582.955189 -1331.341487 -6380.172060 -3777.776016
0.067200  3169.318452  6375.757541  2040.285341 -4892.651581 -6030.570122   260.777283
0.068400  6357.322776  4701.710650 -2742.394127 -6943.704957 -2694.729419  5053.245803
0.069600  6736.942696   -60.208879 -6989.471917 -5157.892720  3246.224357  7566.577015
0.070800  2358.823045 -5772.792532 -6612.035698   827.689385  7150.658109  4436.841455
0.072000 -3752.681925 -7042.659732 -1521.446798  5612.808979  5591.698916 -1148.102536
0.073200 -6178.543789 -3648.064295  3107.403174  5958.846664  1645.479535 -4522.505856
0.074400 -5146.569134   363.124269  5302.993211  3916.828472 -2057.394877 -5661.516372
0.075600 -2584.232191  3777.754778  5745.407931   584.732420 -5489.909485 -4824.403051
0.076800  1858.502663  6325.450883  3030.460198 -4131.213746 -6315.570907  -532.385404
0.078000  6087.453663  5023.842147 -2410.112015 -6704.881001 -2579.087695  4643.974995
0.079200  6049.834114   -29.467703 -6069.941705 -4479.400210  2704.478780  6300.257698
0.080400  1973.217898 -4513.451750 -5248.073269   253.716948  5261.839776  3904.111155
0.081600 -2148.248775 -5511.373349 -2096.118191  3740.836981  4887.366944   263.439749
0.082800 -4520.737825 -3980.974770  1267.259648  5130.597401  2843.944907 -3009.034523
0.084000 -5274.829427 -1114.575814  4455.988288  4703.318048  -816.876289 -5557.390250
0.085200 -3533.127076  3076.490738  6009.397960  1343.656275 -5095.996708 -5129.870502
0.086400  1278.235170  6081.879647  3285.446022 -3643.917329 -6004.266907  -791.821893
0.087600  5361.369869  4661.256726 -1826.370180 -5796.258355 -2485.852277  3655.899304
0.088800  5083.773575   385.121942 -4541.007041 -3877.713315  1345.297883  4787.163831
0.090000  2451.215003 -2681.343476 -4502.942796 -1050.903755  3558.616108  4041.116909
0.091200  -245.452447 -4407.754728 -3361.318110  1904.877420  5012.708945  1977.325165
0.092400 -3591.930131 -4864.385148  -130.258654  4975.708798  4007.522506 -2152.902119
0.093600 -5761.691013 -2012.547166  4324.119036  5101.882941  -517.025384 -5367.961711
0.094800 -3523.926932  2665.444429  5511.318832  1419.934541 -4393.505262 -4523.626681
0.096000   951.541984  4941.656947  2772.763186 -2525.144466 -4611.452115 -1172.703248
0.097200  3598.363342  3928.898593  -499.413009 -4156.267789 -2730.320958  1790.970335
0.098400  4102.601720  1636.429549 -2799.788671 -4001.798702  -331.056120  3861.770443
0.099600  3357.595608 -1260.493545 -4362.143712 -2208.924992  2698.162162  4479.133109
0.100800   724.446246 -4146.967388 -3911.012669  1351.232645  4969.078931  2305.959055
0.102000 -3255.315656 -4737.467238  -291.301734  4541.802391  3655.783429 -1863.133669
0.103200 -4981.787623 -1763.264414  3580.918881  4266.103179  -336.769190 -4303.399328
0.104400 -2852.035658  1966.831570  4184.883735  1279.524205 -3018.444067 -3512.802048
0.105600   186.329883  3459.615690  2531.713185 -1258.541970 -3464.809367 -1659.437825
0.106800  2090.517896  3476.104455   714.501284 -3044.151780 -3201.414718   599.838184
0.108000  3771.605829  2390.432410 -2008.765682 -4133.145262 -1139.605656  3517.383401
