##TITLE=1D-13C-1-2-5-328-110-"no"-"yes"
##JCAMP-DX=5.01 $$ Magritek Spinsolve SPA1903 2.0.4.4423
##DATA TYPE=NMR FID
##DATA CLASS=NTUPLES
##ORIGIN=SPA1903 at Magritek
##OWNER=Copyright (C) 2025 by Magritek
##LONGDATE=2025/03/17 11:58:37.365
##.OBSERVE FREQUENCY=15.4860999900848
##.OBSERVE NUCLEUS=^13C
##.DELAY=( 20,  2000)
##.ACQUISITION MODE=SIMULTANEOUS
##.FIELD= 1.5
##.AVERAGES= 1
##.DIGITISER RES=16
##.SHIFT REFERENCE=(INTERNAL, Water, 4096, 0)
##$REFERENCE_POINT= 796.529    $$ Referencing label
$$      Distance of the zero axis position (in Hz) from the last data
$$      point (right edge); positive values -> right edge is below 0 Hz
##SPECTROMETER/DATA SYSTEM=Magritek
##SAMPLE DESCRIPTION=solvent=Water
$$ Bruker specific parameters
$$ --------------------------
##$AUNMP=   <proc_1d_nosref>
##$INSTRUM= <Magritek>
##$SI=      8192
##$TD=      8192
##$TDeff=   8192
##$SW=      322.870200
##$BF1=     15.4860999900848
##$SF=      15.4843965190859
##$LB=      0
##$PHC0=    217.1
##$PHC1=    0.0
##$REVERSE= yes
$$ End of Bruker specific parameters
$$ ---------------------------------
##NTUPLES=NMR FID
##VAR_NAME=        TIME,            FID/REAL,            FID/IMAG, PAGE NUMBER
##SYMBOL=             X,                   R,                   I,           N
##VAR_TYPE= INDEPENDENT,           DEPENDENT,           DEPENDENT,        PAGE
##VAR_FORM=        AFFN,                AFFN,                AFFN,        AFFN
##VAR_DIM=         8192,                8192,                8192,           2
##UNITS=        SECONDS,     ARBITRARY UNITS,     ARBITRARY UNITS,            
##FIRST=              0,                   0,                   0,           1
##LAST=    1.638199e+00,  0.0596753210464843,  0.0789049183384828,           2
##MIN=                0,   -5424.53875744563,     -5237.221852451,           1
##MAX=     1.638199e+00,    5238.97182069692,    5638.28731789424,           2
##FACTOR=             1,                   1,                   1,           1
##PAGE=N=1
##DATA TABLE=(X++(R..R)), XYDATA
0.000000     0.000000  2258.663367 -4127.254869 -5252.125312   240.896276  5238.971821
0.001200  3747.619622 -2315.284907 -5424.538757 -1835.228343  3898.127123  4737.957910
0.002400  -156.002001 -4719.601181 -3517.319043  1868.340252  4920.551291  2040.236203
0.003600 -3267.779351 -4618.657951  -400.408794  4298.112169  3822.642553 -1286.762650
0.004800 -4900.801926 -2588.399301  2950.921410  4962.651720   870.416479 -4378.885732
0.006000 -4280.908682  1140.223239  5220.395125  2855.510622 -3102.417959 -5252.052598
0.007200  -858.656069  4624.266005  4350.881682 -1336.608261 -5346.222787 -2688.902802
0.008400  3270.966952  5112.188279   625.505790 -4548.885922 -4046.516826  1402.705629
0.009600  5023.858789  2439.487135 -3048.271745 -4712.265379  -640.102534  4102.399145
0.010800  3798.348019 -1057.727527 -4562.683518 -2547.149656  2509.538010  4519.133761
0.012000  1075.131576 -3667.426383 -3984.801758   524.920851  4435.608141  2998.446178
0.013200 -2134.083355 -4757.878590 -1552.684557  3658.656089  4420.026926  -303.919587
0.014400 -4722.631172 -3318.955249  2254.575927  5077.685799  1581.361583 -3929.582292
0.015600 -4539.804318   537.996854  4913.303738  3129.331250 -2502.226058 -4950.846726
0.016800 -1267.476497  3905.891231  4176.324494  -673.113302 -4571.553023 -2808.155300
0.018000  2288.714915  4474.993130  1240.983458 -3392.779665 -3884.057055   278.518779
0.019200  4065.685310  2947.190129 -1703.287492 -4293.845795 -1719.400026  2959.861996
0.020400  4113.102104   267.626323 -3993.174019 -3438.521868  1397.460119  4608.246731
0.021600  2144.242258 -3031.626910 -4524.102081  -381.870860  4301.639277  3662.287128
0.022800 -1560.978139 -4865.156184 -2098.728581  3285.527727  4550.360785   155.053276
0.024000 -4383.804339 -3442.592141  1729.503326  4677.167229  1829.516541 -3193.227978
0.025200 -4214.399441   -89.470053  4052.479881  3188.176017 -1505.570546 -4273.101741
0.026400 -1844.461653  2746.874063  3980.121311   422.535379 -3623.068030 -3281.779423
0.027600  1022.050155  4094.793395  2222.266701 -2366.304086 -4122.896937  -877.888721
0.028800  3498.165061  3664.245960  -704.692143 -4298.223821 -2612.337479  2354.065092
0.030000  4471.160699  1043.558753 -3726.942947 -3909.870440   793.576686  4547.256744
0.031200  2621.924692 -2596.230579 -4548.474894  -814.632816  3872.755719  3704.386645
0.032400 -1023.834887 -4402.443883 -2306.152126  2575.946098  4190.453182   657.753277
0.033600 -3546.581829 -3348.484434   856.886102  3923.243373  2234.771589 -2086.482913
0.034800 -3854.103763  -979.895240  3047.206555  3394.288433  -330.406146 -3673.690897
0.036000 -2619.490461  1643.093694  3997.124629  1485.610973 -2930.550455 -3814.681069
0.037200    33.203892  3926.658786  3000.077553 -1699.294239 -4348.526779 -1585.050344
0.038400  3199.095380  4001.051078  -210.854508 -4158.743352 -2894.491155  1963.229604
0.039600  4323.286515  1292.220567 -3275.071571 -3718.092096   409.282546  3931.413458
0.040800  2561.254827 -1879.556877 -3929.936260 -1182.593971  2917.533309  3394.555942
0.042000  -204.507786 -3484.328909 -2542.508754  1437.482255  3661.937855  1475.781944
0.043200 -2494.907445 -3453.845151  -228.512950  3298.012384  2858.123853 -1081.470892
0.044400 -3767.952584 -1864.888095  2392.719142  3775.487268   485.559455 -3462.484246
0.045600 -3149.458792  1099.791628  4031.562391  1967.505507 -2572.529354 -3937.013705
0.046800  -378.047272  3664.707412  3105.543908 -1312.487804 -4047.155548 -1743.932294
0.048000  2671.272642  3722.435122   177.012512 -3513.553026 -2816.953170  1297.145897
0.049200  3712.295817  1571.157886 -2389.566806 -3369.034299  -304.185495  3067.281425
0.050400  2724.021597  -882.279979 -3394.494298 -1816.492954  1930.627190  3367.480532
0.051600   763.036599 -2814.221038 -3044.977673   455.082209  3486.710278  2272.107467
0.052800 -1809.192130 -3736.308653 -1043.794877  3011.473515  3383.451815  -490.387256
0.054000 -3809.706745 -2374.048111  2058.717661  3922.239857   872.113357 -3244.414513
0.055200 -3280.872243   751.082212  3787.156499  2089.580096 -2139.211614 -3640.677310
0.056400  -660.793985  3035.404472  2947.423649  -691.042446 -3393.401601 -1957.003380
0.057600  1782.284404  3312.650442   862.900505 -2583.283669 -2913.998365   253.283395
0.058800  3124.708670  2246.484524 -1366.954301 -3360.022515 -1282.702697  2402.508184
0.060000  3223.432501    85.565874 -3241.240593 -2618.028508  1292.320278  3657.998335
0.061200  1489.123701 -2570.228787 -3468.916267   -44.905720  3470.325545  2669.985853
0.062400 -1473.005047 -3779.350414 -1361.515266  2726.091126  3368.917603  -154.216021
0.063600 -3426.993611 -2434.761488  1529.031859  3543.187111  1178.839744 -2556.087557
0.064800 -3084.330822   131.198804  3094.417894  2267.786988 -1245.813712 -3200.641160
0.066000 -1290.032437  2143.752853  2976.643352   229.127111 -2780.102285 -2444.380239
0.067200   831.479036  3152.419699  1681.995417 -1891.765349 -3229.694951  -597.951979
0.068400  2841.476818  2823.535901  -715.305020 -3432.851671 -1914.836242  2038.722051
0.069600  3501.001660   574.856699 -3101.361326 -2892.410526   941.961243  3576.016138
0.070800  1734.101435 -2249.232134 -3377.716067  -312.209560  3067.583006  2596.346966
0.072000 -1036.896993 -3297.238415 -1486.407069  2058.774566  3002.902993   321.859225
0.073200 -2662.103770 -2395.984092   713.329788  2926.390448  1623.424463 -1612.466775
0.074400 -2913.749053  -710.678041  2372.404070  2623.204853  -312.153105 -2929.131430
0.075600 -2008.991096  1421.048390  3181.680718  1024.335810 -2474.486241 -2948.781920
0.076800   263.306934  3189.696312  2163.250591 -1579.364360 -3377.633909  -959.125858
0.078000  2672.102823  2956.765999  -453.733944 -3261.572503 -1980.043997  1720.167100
0.079200  3226.501220   748.060941 -2599.528405 -2697.642294   495.248484  3001.967690
0.080400  1795.697783 -1541.679187 -2927.875658  -771.184910  2254.437684  2533.594364
0.081600  -222.967916 -2682.556369 -1900.175631  1165.405689  2821.991156  1082.519534
0.082800 -1971.367716 -2674.305972  -143.014351  2624.105115  2230.230306  -939.504344
0.084000 -3024.798753 -1396.779919  2003.326795  2977.834638   252.441493 -2843.907883
0.085200 -2430.770326  1047.249331  3248.029869  1386.686082 -2218.278770 -3043.352687
0.086400   -61.229736  2964.869320  2265.364794 -1218.145857 -3128.535517 -1147.309923
0.087600  2189.292266  2756.098140   -46.452340 -2692.356997 -2012.618962  1057.442416
0.088800  2768.789208  1129.585844 -1808.232105 -2540.391623  -252.757857  2321.014890
0.090000  2117.834737  -623.544418 -2635.073258 -1490.888130  1487.140692  2722.699308
0.091200   651.953921 -2285.178464 -2476.228225   416.209324  2878.648525  1793.661624
0.092400 -1575.223795 -3025.790667  -706.236841  2527.866981  2623.689729  -578.170344
0.093600 -3064.963643 -1708.456023  1775.738511  3009.608612   480.579757 -2585.379992
0.094800 -2400.605666   716.234969  2880.976736  1480.163349 -1687.156434 -2717.646494
0.096000  -423.077881  2305.321338  2181.473253  -536.580919 -2551.181059 -1490.041238
0.097200  1339.464964  2541.223826   683.772149 -1992.246652 -2267.601024   185.984046
0.098400  2433.845793  1765.650689 -1070.978890 -2661.161258 -1006.311176  1940.070951
0.099600  2542.625055   -10.756792 -2599.878849 -1999.850205  1108.784868  2887.760098
0.100800  1075.597775 -2112.115627 -2680.796007   118.430572  2774.031348  1948.087481
0.102000 -1299.591535 -2895.524471  -872.074260  2197.526650  2495.662578  -285.106494
0.103200 -2644.472741 -1702.571413  1287.128055  2615.335932   744.387333 -1949.468889
0.104400 -2221.681235   169.698148  2292.201433  1641.229806  -948.412651 -2377.325636
0.105600  -960.583309  1604.715926  2257.748847   194.971526 -2131.297733 -1914.655617
0.106800   644.763191  2489.499849  1306.930204 -1550.522441 -2558.141039  -386.228148
0.108000  2327.254153  2169.713645  -725.615968 -2750.958259 -1340.002777  1768.340751
